0,1,2,3,4,5,6,7,8,9,10,11,12,13,14,15,16,17,18,19,20,21,22,23,24,25,26,27,28,29,30,31,32,33,34,35,36,37,38,39,40,41,42,43,44,45,46,47,48,49,50,51,52,53,54,55,56,57,58,59,60,61,62,63,64,65,66,67,68,69,70,71,72,73,74,75,76,77,78,79,80,81,82,83,84,85,86,87,88,89,90,91,92,93,94,95,96,97,98,99,100,101,102,103,104,105,106,107,108,109,110,111,112,113,114,115,116,117,118,119,120,121,122,123,124,125,126,127,128,129,130,131,132,133,134,135,136,137,138,139,140,141,142,143,144,145,146,147,148,149,150,151,152,153,154,155,156,157,158,159,160,161,162,163,164,165,166,167,168,169,170,171,172,173,174,175,176,177,178,179,180,181,182,183,184,185,186,187,188,189,190,191,192,193,194,195,196,197,198,199,200,201,202,203,204,205,206,207,208,209,210,211,212,213,214,215,216,217,218,219,220,221,222,223,224,225,226,227,228,229,230,231,232,233,234,235,236,237,238,239,240,241,242,243,244,245,246,247,248,249,250,251,252,253,254,255,256,257,258,259,260,261,262,263,264,265,266,267,268,269,270,271,272,273,274,275,276,277,278,279,280,281,282,283,284,285,286,287,288,289,290,291,292,293,294,295,296,297,298,299,300,301,302,303,304,305,306,307,308,309,310,311,312,313,314,315,316,317,318,319,320,321,322,323,324,325,326,327,328,329,330,331,332,333,334,335,336,337,338,339,340,341,342,343,344,345,346,347,348,349,350,351,352,353,354,355,356,357,358,359,360,361,362,363,364,365,366,367,368,369,370,371,372,373,374,375,376,377,378,379,380,381,382,383,384,385,386,387,388,389,390,391,392,393,394,395,396,397,398,399,400,401,402,403,404,405,406,407,408,409,410,411,412,413,414,415,416,417,418,419,420,421,422,423,424,425,426,427,428,429,430,431,432,433,434,435,436,437,438,439,440,441,442,443,444,445,446,447,448,449,450,451,452,453,454,455,456,457,458,459,460,461,462,463,464,465,466,467,468,469,470,471,472,473,474,475,476,477,478,479,480,481,482,483,484,485,486,487,488,489,490,491,492,493,494,495,496,497,498,499,500,501,502,503,504,505,506,507,508,509,510,511,512,513,514,515,516,517,518,519,520,521,522,523,524,525,526,527,528,529,530,531,532,533,534,535,536,537,538,539,540,541,542,543,544,545,546,547,548,549,550,551,552,553,554,555,556,557,558,559,560,561,562,563,564,565,566,567,568,569,570,571,572,573,574,575,576,577,578,579,580,581,582,583,584,585,586,587,588,589,590,591,592,593,594,595,596,597,598,599,600,601,602,603,604,605,606,607,608,609,610,611,612,613,614,615,616,617,618,619,620,621,622,623,624,625,626,627,628,629,630,631,632,633,634,635,636,637,638,639,640,641,642,643,644,645,646,647,648,649,650,651,652,653,654,655,656,657,658,659,660,661,662,663,664,665,666,667,668,669,670,671,672,673,674,675,676,677,678,679,680,681,682,683,684,685,686,687,688,689,690,691,692,693,694,695,696,697,698,699,700,701,702,703,704,705,706,707,708,709,710,711,712,713,714,715,716,717,718,719,720,721,722,723,724,725,726,727,728,729,730,731,732,733,734,735,736,737,738,739,740,741,742,743,744,745,746,747,748,749,750,751,752,753,754,755,756,757,758,759,760,761,762,763,764,765,766,767,768,769,770,771,772,773,774,775,776,777,778,779,780,781,782,783,784,785,786,787,788,789,790,791,792,793,794,795,796,797,798,799,800,801,802,803,804,805,806,807,808,809,810,811,812,813,814,815,816,817,818,819,820,821,822,823,824,825,826,827,828,829,830,831,832,833,834,835,836,837,838,839,840,841,842,843,844,845,846,847,848,849,850,851,852,853,854,855,856,857,858,859,860,861,862,863,864,865,866,867,868,869,870,871,872,873,874,875,876,877,878,879,880,881,882,883,884,885,886,887,888,889,890,891,892,893,894,895,896,897,898,899,900,901,902,903,904,905,906,907,908,909,910,911,912,913,914,915,916,917,918,919,920,921,922,923,924,925,926,927,928,929,930,931,932,933,934,935,936,937,938,939,940,941,942,943,944,945,946,947,948,949,950,951,952,953,954,955,956,957,958,959,960,961,962,963,964,965,966,967,968,969,970,971,972,973,974,975,976,977,978,979,980,981,982,983,984,985,986,987,988,989,990,991,992,993,994,995,996,997,998,999,1000,1001,1002,1003,1004,1005,1006,1007,1008,1009,1010,1011,1012,1013,1014,1015,1016,1017,1018,1019,1020,1021,1022,1023,1024,1025,1026,1027,1028,1029,1030,1031,1032,1033,1034,1035,1036,1037,1038,1039,1040,1041,1042,1043,1044,1045,1046,1047,1048,1049,1050,1051,1052,1053,1054,1055,1056,1057,1058,1059,1060,1061,1062,1063,1064,1065,1066,1067,1068,1069,1070,1071,1072,1073,1074,1075,1076,1077,1078,1079,1080,1081,1082,1083,1084,1085,1086,1087,1088,1089,1090,1091,1092,1093,1094,1095,1096,1097,1098,1099,1100,1101,1102,1103,1104,1105,1106,1107,1108,1109,1110,1111,1112,1113,1114,1115,1116,1117,1118,1119,1120,1121,1122,1123,1124,1125,1126,1127,1128,1129,1130,1131,1132,1133,1134,1135,1136,1137,1138,1139,1140,1141,1142,1143,1144,1145,1146,1147,1148,1149,1150,1151,1152,1153,1154,1155,1156,1157,1158,1159,1160,1161,1162,1163,1164,1165,1166,1167,1168,1169,1170,1171,1172,1173,1174,1175,1176,1177,1178,1179,1180,1181,1182,1183,1184,1185,1186,1187,1188,1189,1190,1191,1192,1193,1194,1195,1196,1197,1198,1199,1200,1201,1202,1203,1204,1205,1206,1207,1208,1209,1210,1211,1212,1213,1214,1215,1216,1217,1218,1219,1220,1221,1222,1223,1224,1225,1226,1227,1228,1229,1230,1231,1232,1233,1234,1235,1236,1237,1238,1239,1240,1241,1242,1243,1244,1245,1246,1247,1248,1249,1250,1251,1252,1253,1254,1255,1256,1257,1258,1259,1260,1261,1262,1263,1264,1265,1266,1267,1268,1269,1270,1271,1272,1273,1274,1275,1276,1277,1278,1279,1280,1281,1282,1283,1284,1285,1286,1287,1288,1289,1290,1291,1292,1293,1294,1295,1296,1297,1298,1299,1300,1301,1302,1303,1304,1305,1306,1307,1308,1309,1310,1311,1312,1313,1314,1315,1316,1317,1318,1319,1320,1321,1322,1323,1324,1325,1326,1327,1328,1329,1330,1331,1332,1333,1334,1335,1336,1337,1338,1339,1340,1341,1342,1343,1344,1345,1346,1347,1348,1349,1350,1351,1352,1353,1354,1355,1356,1357,1358,1359,1360,1361,1362,1363,1364,1365,1366,1367,1368,1369,1370,1371,1372,1373,1374,1375,1376,1377,1378,1379,1380,1381,1382,1383,1384,1385,1386,1387,1388,1389,1390,1391,1392,1393,1394,1395,1396,1397,1398,1399,1400,1401,1402,1403,1404,1405,1406,1407,1408,1409,1410,1411,1412,1413,1414,1415,1416,1417,1418,1419,1420,1421,1422,1423,1424,1425,1426,1427,1428,1429,1430,1431,1432,1433,1434,1435,1436,1437,1438,1439,1440,1441,1442,1443,1444,1445,1446,1447,1448,1449,1450,1451,1452,1453,1454,1455,1456,1457,1458,1459,1460,1461,1462,1463,1464,1465,1466,1467,1468,1469,1470,1471,1472,1473,1474,1475,1476,1477,1478,1479,1480,1481,1482,1483,1484,1485,1486,1487,1488,1489,1490,1491,1492,1493,1494,1495,1496,1497,1498,1499,1500,1501,1502,1503,1504,1505,1506,1507,1508,1509,1510,1511,1512,1513,1514,1515,1516,1517,1518,1519,1520,1521,1522,1523,1524,1525,1526,1527,1528,1529,1530,1531,1532,1533,1534,1535,1536,1537,1538,1539,1540,1541,1542,1543,1544,1545,1546,1547,1548,1549,1550,1551,1552,1553,1554,1555,1556,1557,1558,1559,1560,1561,1562,1563,1564,1565,1566,1567,1568,1569,1570,1571,1572,1573,1574,1575,1576,1577,1578,1579,1580,1581,1582,1583,1584,1585,1586,1587,1588,1589,1590,1591,1592,1593,1594,1595,1596,1597,1598,1599,1600,1601,1602,1603,1604,1605,1606,1607,1608,1609,1610,1611,1612,1613,1614,1615,1616,1617,1618,1619,1620,1621,1622,1623,1624,1625,1626,1627,1628,1629,1630,1631,1632,1633,1634,1635,1636,1637,1638,1639,1640,1641,1642,1643,1644,1645,1646,1647,1648,1649,1650,1651,1652,1653,1654,1655,1656,1657,1658,1659,1660,1661,1662,1663,1664,1665,1666,1667,1668,1669,1670,1671,1672,1673,1674,1675,1676,1677,1678,1679,1680,1681,1682,1683,1684,1685,1686,1687,1688,1689,1690,1691,1692,1693,1694,1695,1696,1697,1698,1699,1700,1701,1702,1703,1704,1705,1706,1707,1708,1709,1710,1711,1712,1713,1714,1715,1716,1717,1718,1719,1720,1721,1722,1723,1724,1725,1726,1727,1728,1729,1730,1731,1732,1733,1734,1735,1736,1737,1738,1739,1740,1741,1742,1743,1744,1745,1746,1747,1748,1749,1750,1751,1752,1753,1754,1755,1756,1757,1758,1759,1760,1761,1762,1763,1764,1765,1766,1767,1768,1769,1770,1771,1772,1773,1774,1775,1776,1777,1778,1779,1780,1781,1782,1783,1784,1785,1786,1787,1788,1789,1790,1791,1792,1793,1794,1795,1796,1797,1798,1799,1800,1801,1802,1803,1804,1805,1806,1807,1808,1809,1810,1811,1812,1813,1814,1815,1816,1817,1818,1819,1820,1821,1822,1823,1824,1825,1826,1827,1828,1829,1830,1831,1832,1833,1834,1835,1836,1837,1838,1839,1840,1841,1842,1843,1844,1845,1846,1847,1848,1849,1850,1851,1852,1853,1854,1855,1856,1857,1858,1859,1860,1861,1862,1863,1864,1865,1866,1867,1868,1869,1870,1871,1872,1873,1874,1875,1876,1877,1878,1879,1880,1881,1882,1883,1884,1885,1886,1887,1888,1889,1890,1891,1892,1893,1894,1895,1896,1897,1898,1899,1900,1901,1902,1903,1904,1905,1906,1907,1908,1909,1910,1911,1912,1913,1914,1915,1916,1917,1918,1919,1920,1921,1922,1923,1924,1925,1926,1927,1928,1929,1930,1931,1932,1933,1934,1935,1936,1937,1938,1939,1940,1941,1942,1943,1944,1945,1946,1947,1948,1949,1950,1951,1952,1953,1954,1955,1956,1957,1958,1959,1960,1961,1962,1963,1964,1965,1966,1967,1968,1969,1970,1971,1972,1973,1974,1975,1976,1977,1978,1979,1980,1981,1982,1983,1984,1985,1986,1987,1988,1989,1990,1991,1992,1993,1994,1995,1996,1997,1998,1999,2000,2001,2002,2003,2004,2005,2006,2007,2008,2009,2010,2011,2012,2013,2014,2015,2016,2017,2018,2019,2020,2021,2022,2023,2024,2025,2026,2027,2028,2029,2030,2031,2032,2033,2034,2035,2036,2037,2038,2039,2040,2041,2042,2043,2044,2045,2046,2047,2048,2049,2050,2051,2052,2053,2054,2055,2056,2057,2058,2059,2060,2061,2062,2063,2064,2065,2066,2067,2068,2069,2070,2071,2072,2073,2074,2075,2076,2077,2078,2079,2080,2081,2082,2083,2084,2085,2086,2087,2088,2089,2090,2091,2092,2093,2094,2095,2096,2097,2098,2099
2295.835255665994,2295.8256314856603,2295.7875586944683,2295.7211461391275,2295.6265067909644,2295.503758106322,2295.3530222003255,2295.174425632693,2294.968098976135,2294.734176466108,2294.4727958203976,2294.1840981810847,2293.8682281570923,2293.525333864728,2293.155566790549,2292.7590815124463,2292.3360355354043,2291.886589362466,2291.4109067175505,2290.909154847032,2290.381504826987,2289.8281317401834,2289.2492146804925,2288.644936636013,2288.01548424449,2287.36104748514,2286.681819426132,2285.977995945652,2285.2497754355245,2284.4973587797467,2283.7209496169066,2282.9207545748886,2282.0969833945123,2281.2498489190184,2280.379566721154,2279.4863544653062,2278.5704314739933,2277.632018614111,2276.671338323418,2275.688614763141,2274.6840740633656,2273.65794441885,2272.6104558352235,2271.541839751248,2270.4523290295324,2269.3421583233862,2268.211564291514,2267.0607853322763,2265.8900611298745,2264.6996325651157,2263.4897420189704,2262.2606335457335,2261.012552569585,2259.7457453366214,2258.4604585968113,2257.156939601771,2255.835436155496,2254.4961965654475,2253.1394695709264,2251.76550441158,2250.3745510257786,2248.9668601801022,2247.54268342222,2246.1022729225556,2244.645881293211,2243.173761436715,2241.6861664848548,2240.1833498493975,2238.665565307743,2237.1330670234956,2235.586109504514,2234.0249475061164,2232.449835761486,2230.861028595671,2229.2587797219608,2227.643342279606,2226.0149688641263,2224.37391135785,2222.720420623514,2221.054746255832,2219.3771364615386,2217.687838016625,2215.9870962430514,2214.275154980575,2212.5522565754736,2210.818641897718,2209.0745503455396,2207.3202197771343,2205.5558864169293,2203.781784886445,2201.998148361027,2200.2052086972803,2198.403196468382,2196.5923409418774,2194.772870008937,2192.945010091996,2191.1089860820643,2189.2650212839003,2187.413337417773,2185.5541548727165,2183.6876931574106,2181.814171142205,2179.933806835826,2178.046816963473,2176.1534168310036,2174.253820518804,2172.3482410693755,2170.436890525024,2168.5199798746294,2166.597718928725,2164.6703161639184,2162.737978587935,2160.800911543221,2158.859318482437,2156.9134009774225,2154.963358969322,2153.009390927759,2151.051693713887,2149.090462356327,2147.125890137491,2145.1581689787527,2143.18748966027,2141.214041579252,2139.238012255679,2137.2595869778447,2135.2789486864576,2133.296277980609,2131.3117531930266,2129.325550467938,2127.3378437197157,2125.348804492828,2123.3586019513236,2121.367403195329,2119.375373726314,2117.382677646945,2115.3894775557715,2113.3959344278255,2111.4022075721623,2109.408454586847,2107.4148312870175,2105.4214916342285,2103.428587767095,2101.436270251196,2099.4446884289937,2097.4539905684155,2095.464323783181,2093.4758339197674,2091.488665425122,2089.502961164339,2087.5188622870414,2085.5365081860486,2083.556036509874,2081.5775832059594,2079.6012826408055,2077.627267907279,2075.6556712588153,2073.6866244320195,2071.720258789697,2069.7567053509924,2067.796094694528,2065.8385567460778,2063.88422052643,2061.933213932528,2059.9856636006107,2058.041694796211,2056.101431366917,2054.1649959976785,2052.2325107147963,2050.3040971808246,2048.379876523925,2046.4599689901786,2044.544493895869,2042.6335699015276,2040.7273152115174,2038.8258474850086,2036.9292836442758,2035.0377398880635,2033.1513319164262,2031.2701750516014,2029.3943840279478,2027.5240726163622,2025.6593534422116,2023.800338051914,2021.9471369973562,2020.0998598086376,2018.2586149397655,2016.4235098475879,2014.5946511936982,2012.7721449782566,2010.9560965005733,2009.1466102387785,2007.3437897947556,2005.5477379274187,2003.7585565922623,2001.9763469307657,2000.2012093070987,1998.4332436011425,1996.6725496937056,1994.9192277541217,1993.1733781276287,1991.4351009905013,1989.7044959909265,1987.9816619743551,1986.2666969164227,1984.559698182695,1982.8607629254554,1981.1699882315654,1979.4874709931878,1977.8133078065537,1976.1475950398196,1974.4904290046186,1972.8419061800107,1971.2021234413887,1969.571178109686,1967.94916760418,1966.336188880977,1964.7323381380222,1963.1377108687097,1961.552401976852,1959.9765058299124,1958.4101163697474,1956.8533274578142,1955.306233376622,1953.7689290950443,1952.241510060274,1950.7240717446596,1949.2167093282617,1947.7195176043206,1946.2325910063344,1944.756023738793,1943.2899099910499,1941.8343441625223,1940.389421050489,1938.955235982536,1937.5318849295472,1936.119464544106,1934.718071917851,1933.327804125751,1931.9487579778843,1930.5810301902936,1929.2247176710164,1927.8799174506921,1926.5467262821057,1925.2252403407958,1923.9155551562358,1922.617765703058,1921.3319667613168,1920.0582534624364,1918.7967215643532,1917.5474671647698,1916.3105861910437,1915.0861742821999,1913.8743270989744,1912.6751406143646,1911.4887112385095,1910.315135826622,1909.1545114571318,1908.006935041585,1906.8725030484018,1905.7513113840866,1904.6434553908557,1903.5490301260952,1902.4681308595334,1901.4008533508675,1900.3472936616442,1899.30754777965,1898.2817115122955,1897.269880681056,1896.272151336141,1895.2886199362538,1894.319383462669,1893.364539223986,1892.424184405416,1891.4984158242223,1890.5873301426345,1889.6910242522936,1888.8095953698785,1887.943140824683,1887.0917579087215,1886.255543972723,1885.434596553873,1884.6290131929347,1883.83889099075,1883.06432630548,1882.3054147226517,1881.5622511249044,1880.834929743463,1880.1235441823594,1879.4281874936214,1878.748952432936,1878.0859318073065,1877.4392186172158,1876.8089059612346,1876.1950869505526,1875.5978547501202,1875.0173025912397,1874.4535235017179,1873.9066098240958,1873.3766529489612,1872.8637434826057,1872.367971574621,1871.8894269899686,1871.4281989101407,1870.9843758083373,1870.5580455935662,1870.149295901852,1869.75821433579,1869.3848885947493,1869.0294064457098,1868.6918553898324,1868.3723222004387,1868.0708928222223,1867.7876526586238,1867.522686739582,1867.2760794503706,1867.0479140305329,1866.8382722455476,1866.6472343145729,1866.4748790070703,1866.3212839967862,1866.1865263692227,1866.070682896633,1865.9738300125725,1865.8960437168253,1865.8373994760866,1865.7979720922028,1865.7778355802748,1865.777063087399,1865.7957268533305,1865.8338982053679,1865.8916475605347,1865.9690444094085,1866.0661572854422,1866.1830537595292,1866.3198004995595,1866.4764633616269,1866.6531074282564,1866.8497969833902,1867.0665953972045,1867.3035647720108,1867.5607654107898,1867.838255422517,1868.1360905617282,1868.4543241599943,1868.793007041591,1869.1521874374687,1869.5319109936897,1869.9322208704884,1870.3531578909178,1870.7947608506431,1871.2570669414324,1871.7401119831654,1872.24393040409,1872.768555186031,1873.3140178861113,1873.8803485952121,1874.467575572874,1875.0757247086585,1875.7048193562275,1876.3548805901441,1877.0259273763318,1877.71797636896,1878.4310416120109,1879.1651346430488,1879.9202649697058,1880.6964403751895,1881.493666800208,1882.3119479846769,1883.1512850564206,1884.011676165604,1884.8931163290251,1885.7955976086528,1886.719109397443,1887.663638385435,1888.629168209977,1889.6156792529812,1890.6231488685946,1891.6515518348397,1892.7008606560787,1893.7710456355214,1894.8620748511335,1895.9739140849517,1897.1065267019671,1898.2598734888263,1899.4339124869798,1900.6285988677198,1901.8438848298747,1903.0797194752797,1904.3360486658755,1905.6128148919242,1906.9099572308469,1908.2274114902898,1909.5651104636158,1910.9229841080382,1912.300959594115,1913.6989613278986,1915.1169110457654,1916.554727881905,1918.012328134065,1919.4896247788429,1920.9865271237768,1922.5029407167706,1924.0387673359003,1925.5939049377862,1927.168247569665,1928.7616853708234,1930.37410482753,1932.0053890968188,1933.6554179118607,1935.32406708431,1937.011208115261,1938.7167080866434,1940.4404296586647,1942.1822310861137,1943.9419662406988,1945.7194846137825,1947.5146312995141,1949.3272469634915,1951.1571677751574,1953.0042253116287,1954.8682465624697,1956.749054214933,1958.6464671235015,1960.5603006354697,1962.4903666815285,1964.4364736762345,1966.3984261219398,1968.376024020051,1970.3690624563524,1972.3773314540058,1974.4006159608728,1976.438695959623,1978.4913467096098,1980.558339069227,1982.6394398077064,1984.734411771724,1986.8430138901508,1988.965001060548,1991.100123849453,1993.2481280705722,1995.4087544909353,1997.5817387291245,1999.7668112430063,2001.9636973877352,2004.1721175183877,2006.3917871487758,2008.622417356222,2010.8637153027896,2013.1153843280072,2015.3771235784718,2017.648627735974,2019.9295871454883,2022.219688098119,2024.5186128715004,2026.8260395058626,2029.1416416363327,2031.4650885597218,2033.796045424242,2036.1341733613594,2038.4791295149128,2040.8305670688,2043.1881354053198,2045.5514803467267,2047.9202442658689,2050.294066026163,2052.672580971468,2055.0554211851345,2057.4422158682078,2059.8325914085144,2062.226171111146,2064.6225750058047,2067.0214199733723,2069.4223200403976,2071.824886576085,2074.228728330235,2076.6334514249866,2079.038659392701,2081.4439533766713,2083.8489326716317,2086.2531954566025,2088.656339244361,2091.0579609231595,2093.4576567022973,2095.8550222218523,2098.2496527868393,2100.6411435475547,2103.0290896376646,2105.413086311073,2107.7927289442287,2110.1676128910435,2112.5373333699636,2114.9014854857714,2117.259664351517,2119.611465260572,2121.9564838536694,2124.2943162860875,2126.6245595603737,2128.946812023357,2131.2606737543183,2133.565746735338,2135.8616349230792,2138.147944351527,2140.4242832400437,2142.690261925952,2144.945492626775,2147.189589286038,2149.42216765395,2151.642845481153,2153.851242611407,2156.0469809385986,2158.229684361435,2160.398978834572,2162.5544925020727,2164.6958558529386,2166.8227018487196,2168.9346660757697,2171.0313871209232,2173.1125070859594,2175.177671801045,2177.2265306730474,2179.2587366046987,2181.2739463180146,2183.2718209101463,2185.252026201853,2187.2142327811453,2189.158115942147,2191.0833556012426,2192.9896362110353,2194.8766467413698,2196.7440807222897,2198.591636243796,2200.4190158405972,2202.2259264183062,2204.0120795339562,2205.777191951345,2207.5209860301097,2209.24318985365,2210.9435372933694,2212.6217680656696,2214.277627758617,2215.910867850089,2217.5212457686885,2219.108524929488,2220.672474541984,2222.2128692300385,2223.7294888036067,2225.2221183656197,2226.6905485668217,2228.1345757187623,2229.554001729051,2230.948634049933,2232.318285773551,2233.6627757982424,2234.9819288876342,2236.2755756007464,2237.543552248258,2238.785700991634,2240.0018699632883,2241.1919131333943,2242.3556899502546,2243.493065172275,2244.6039091928674,2245.688098572347,2246.7455161844,2247.77605095021,2248.7795976372445,2249.7560568701706,2250.7053351384766,2251.6273446584696,2252.5220031524827,2253.3892336914732,2254.228964635635,2255.041129643534,2255.825667781829,2256.582523652221,2257.311647308682,2258.0129939816243,2258.6865239565113,2259.3322028646526,2259.9500021143367,2260.5398988878424,2261.101875701764,2261.6359201025516,2262.1420247742294,2262.620187803134,2263.0704127444633,2263.4927084714186,2263.8870890697954,2264.25357392549,2264.592187834377,2264.902960825532,2265.185927740103,2265.4411279928454,2265.6686057535276,2265.8684102584166,2266.04059576458,2266.185221157254,2266.3023496731844,2266.3920489399734,2266.454391176277,2266.489453410516,2266.4973176629614,,,,,,,,,,,,,,,,,,,,,,,,,,,,,,,,,,,,,,,,,,,,,,,,,,,,,,,,,,,,,,,,,,,,,,,,,,,,,,,,,,,,,,,,,,,,,,,,,,,,,,,,,,,,,,,,,,,,,,,,,,,,,,,,,,,,,,,,,,,,,,,,,,,,,,,,,,,,,,,,,,,,,,,,,,,,,,,,,,,,,,,,,,,,,,,,,,,,,,,,,,,,,,,,,,,,,,,,,,,,,,,,,,,,,,,,,,,,,,,,,,,,,,,,,,,,,,,,,,,,,,,,,,,,,,,,,,,,,,,,,,,,,,,,,,,,,,,,,,,,,,,,,,,,,,,,,,,,,,,,,,,,,,,,,,,,,,,,,,,,,,,,,,,,,,,,,,,,,,,,,,,,,,,,,,,,,,,,,,,,,,,,,,,,,,,,,,,,,,,,,,,,,,,,,,,,,,,,,,,,,,,,,,,,,,,,,,,,,,,,,,,,,,,,,,,,,,,,,,,,,,,,,,,,,,,,,,,,,,,,,,,,,,,,,,,,,,,,,,,,,,,,,,,,,,,,,,,,,,,,,,,,,,,,,,,,,,,,,,,,,,,,,,,,,,,,,,,,,,,,,,,,,,,,,,,,,,,,,,,,,,,,,,,,,,,,,,,,,,,,,,,,,,,,,,,,,,,,,,,,,,,,,,,,,,,,,,,,,,,,,,,,,,,,,,,,,,,,,,,,,,,,,,,,,,,,,,,,,,,,,,,,,,,,,,,,,,,,,,,,,,,,,,,,,,,,,,,,,,,,,,,,,,,,,,,,,,,,,,,,,,,,,,,,,,,,,,,,,,,,,,,,,,,,,,,,,,,,,,,,,,,,,,,,,,,,,,,,,,,,,,,,,,,,,,,,,,,,,,,,,,,,,,,,,,,,,,,,,,,,,,,,,,,,,,,,,,,,,,,,,,,,,,,,,,,,,,,,,,,,,,,,,,,,,,,,,,,,,,,,,,,,,,,,,,,,,,,,,,,,,,,,,,,,,,,,,,,,,,,,,,,,,,,,,,,,,,,,,,,,,,,,,,,,,,,,,,,,,,,,,,,,,,,,,,,,,,,,,,,,,,,,,,,,,,,,,,,,,,,,,,,,,,,,,,,,,,,,,,,,,,,,,,,,,,,,,,,,,,,,,,,,,,,,,,,,,,,,,,,,,,,,,,,,,,,,,,,,,,,,,,,,,,,,,,,,,,,,,,,,,,,,,,,,,,,,,,,,,,,,,,,,,,,,,,,,,,,,,,,,,,,,,,,,,,,,,,,,,,,,,,,,,,,,,,,,,,,,,,,,,,,,,,,,,,,,,,,,,,,,,,,,,,,,,,,,,,,,,,,,,,,,,,,,,,,,,,,,,,,,,,,,,,,,,,,,,,,,,,,,,,,,,,,,,,,,,,,,,,,,,,,,,,,,,,,,,,,,,,,,,,,,,,,,,,,,,,,,,,,,,,,,,,,,,,,,,,,,,,,,,,,,,,,,,,,,,,,,,,,,,,,,,,,,,,,,,,,,,,,,,,,,,,,,,,,,,,,,,,,,,,,,,,,,,,,,,,,,,,,,,,,,,,,,,,,,,,,,,,,,,,,,,,,,,,,,,,,,,,,,,,,,,,,,,,,,,,,,,,
2032.1849435967565,2032.1838094553095,2032.1799230713605,2032.1732925067142,2032.16392606017,2032.1518322975874,2032.1370200896781,2032.1194986250675,2032.0992773953794,2032.0763661815556,2032.0507750535814,2032.0225143702287,2031.99159476137,2031.9580270973283,2031.9218224752838,2031.882992243428,2031.8415480437984,2031.797501836875,2031.7508659018472,2031.7016528287868,2031.6498755047503,2031.595547090973,2031.5386809956153,2031.479290848963,2031.4173904887841,2031.3529939554392,2031.2861154935015,2031.2167695651578,2031.1449708721443,2031.0707343578206,2030.9940751593556,2030.9150085347746,2030.8335498293777,2030.7497144900465,2030.6635180799742,2030.5749762690652,2030.4841048219191,2030.3909196211243,2030.295436720185,2030.1976723696862,2030.0976429801815,2029.9953650566977,2029.8908551701716,2029.7841299731256,2029.6752062157634,2029.5641007413878,2029.4508304704748,2029.3354123835422,2029.2178635072794,2029.0982009112397,2028.9764417228034,2028.8526031567592,2028.7267025501758,2028.5987573940388,2028.468785338531,2028.3368041447727,2028.2028316231836,2028.0668856521922,2027.9289842728256,2027.7891457415215,2027.6473884709787,2027.5037309235513,2027.3581915715965,2027.2107889349227,2027.0615416178412,2026.910468314586,2026.7575878082553,2026.6029189880192,2026.446480880541,2026.2882926635587,2026.1283736380942,2025.9667431743032,2025.8034206622056,2025.6384254798704,2025.471776980278,2025.303494496446,2025.133597342107,2024.9621047706053,2024.789035902567,2024.6144096852245,2024.438244915041,2024.2605602915892,2024.0813744592638,2023.9007060266943,2023.7185735719631,2023.5349956356654,2023.3499907062676,2023.163577206694,2022.975773485791,2022.78659781345,2022.5960683757417,2022.404203278984,2022.2110205866807,2022.016538380408,2021.8207747963654,2021.6237480156822,2021.4254762194387,2021.2259775104249,2021.0252698215188,2020.8233708646446,2020.6202981418126,2020.4160689865955,2020.2107006043952,2020.0042101017627,2019.7966145027417,2019.5879307554837,2019.3781757275103,2019.1673661746102,2018.955518691487,2018.7426496741793,2018.5287752934405,2018.3139114839503,2018.0980739943882,2017.8812784861996,2017.6635406003165,2017.4448759642446,2017.2253001817107,2017.0048288438197,2016.7834775592858,2016.5612619647884,2016.3381976829985,2016.1143002518038,2015.8895850803171,2015.664067443026,2015.4377624913952,2015.2106852837305,2014.9828508215378,2014.7542740526214,2014.5249698405112,2014.2949529436314,2014.0642380249042,2013.832839675151,2013.600772429196,2013.368050771019,2013.1346891405367,2012.90070195621,2012.666103636845,2012.4309085787684,2012.1951310944653,2011.9587853844887,2011.7218855909211,2011.4844458747773,2011.2464804045592,2011.0080032592086,2010.7690283554066,2010.5295694381673,2010.2896400990235,2010.0492538035462,2009.8084239217083,2009.567163754599,2009.3254865696608,2009.0834056351189,2008.8409342069438,2008.598085478898,2008.3548725678806,2008.111308545933,2007.8674064673762,2007.623179369176,2007.3786402607593,2007.13380211911,2006.8886778907597,2006.643280501899,2006.3976228879615,2006.151718028486,2005.9055789438416,2005.6592186550374,2005.4126501548894,2005.1658864096214,2004.918940364116,2004.6718249175515,2004.4245528759132,2004.1771369260084,2003.9295896545184,2003.6819235857124,2003.4341511976595,2003.1862849132888,2002.9383370906373,2002.6903200216188,2002.4422459340392,2002.1941269948295,2001.94597531409,2001.6978029523812,2001.4496219389691,2001.2014442973725,2000.9532820615805,2000.7051472792848,2000.4570520159268,2000.20900837213,1999.961028501539,1999.713124596202,1999.4653088435507,1999.2175933975818,1998.969990380466,1998.7225118947035,1998.4751700263553,1998.2279768389399,1997.9809443673307,1997.7340846128698,1997.487409536045,1997.2409310467335,1996.9946609948474,1996.748611159763,1996.5027932275766,1996.257218770388,1996.011899272237,1995.766846195614,1995.522071035794,1995.277585356912,1995.0334008183024,1994.7895291614789,1994.5459821614118,1994.3027715915964,1994.0599092195484,1993.817406811223,1993.575276127722,1993.3335289155084,1993.092176900676,1992.8512317917348,1992.6107052767152,1992.3706089906518,1992.1309544619685,1991.8917530754939,1991.6530160598163,1991.4147544949235,1991.1769793624371,1990.9397016262733,1990.7029322808435,1990.4666823383945,1990.2309627948428,1989.9957846264394,1989.7611588184832,1989.5270963814519,1989.2936083257498,1989.060705627523,1988.8283992496506,1988.5967002130378,1988.3656196362615,1988.1351686948801,1987.9053585470658,1987.6762003075103,1987.447705076507,1987.2198839588827,1986.9927480318083,1986.7663082943448,1986.5405756640494,1986.3155610218573,1986.091275240729,1985.8677291619574,1985.6449335515897,1985.4228990921406,1985.2016364120332,1984.9811561081367,1984.7614687403072,1984.5425848088798,1984.3245147252617,1984.1072687833298,1983.8908571555723,1983.6752899403448,1983.4605772350849,1983.2467291734156,1983.033755917207,1982.821667636462,1982.6104744794588,1982.4001865327443,1982.1908137949176,1981.9823661710973,1981.7748534734685,1981.5682854193922,1981.3626716359954,1981.1580216907255,1980.9543451405575,1980.7516515637524,1980.549950561178,1980.3492517503225,1980.1495647779639,1979.9508993486552,1979.7532652361635,1979.556672252303,1979.3611301999372,1979.1666488677638,1978.9732380685048,1978.7809076576136,1978.5896674886856,1978.3995273359976,1978.210496848687,1978.0225855483345,1977.835802838711,1977.6501580167346,1977.4656602968084,1977.282318863958,1977.1001429427813,1976.919141830286,1976.7393248593398,1976.5607013296571,1976.3832804716412,1976.2070714524114,1976.0320833838525,1975.858325308748,1975.6858061747303,1975.5145348159383,1975.3445199472371,1975.1757701620859,1975.008293926743,1974.8420995728422,1974.6771952968575,1974.5135891668604,1974.3512891268374,1974.190302992477,1974.0306384437035,1973.8723030240994,1973.7153041476213,1973.559649108959,1973.4053451036239,1973.2523992577642,1973.100818655133,1972.9506103547149,1972.8017814002296,1972.654338824759,1972.5082896651008,1972.3636410081672,1972.220400058062,1972.0785741727243,1971.938170843354,1971.7991976555738,1971.661662293585,1971.5255725865109,1971.3909365311963,1971.257762246842,1971.1260578927054,1970.9958316121658,1970.8670915173511,1970.7398456940402,1970.614102224813,1970.4898692166526,1970.3671547952706,1970.2459670677777,1970.1263140967014,1970.0082039032081,1969.8916444792385,1969.7766437850303,1969.6632097328336,1969.5513501742694,1969.4410728961964,1969.3323856238728,1969.2252960395226,1969.1198118118473,1969.0159406149778,1968.9136901291588,1968.813068037367,1968.7140820340871,1968.6167398442244,1968.521049224151,1968.427017915277,1968.334653580161,1968.2439637966313,1968.154956111532,1968.0676380818845,1967.982017273435,1967.898101243372,1967.815897534388,1967.7354136825295,1967.6566572274667,1967.5796357195072,1967.504356719296,1967.4308277828989,1967.3590564411927,1967.2890501970985,1967.2208165414636,1967.1543629640641,1967.0896969475573,1967.0268259488441,1966.9657573719005,1966.906498538974,1966.8490566711002,1966.7934388759104,1966.739652137456,1966.6877033149465,1966.637599150807,1966.5893462811591,1966.5429512523733,1966.4984205424803,1966.4557605728319,1966.4149777071727,1966.376078245426,1966.339068410164,1966.303954336311,1966.2707420941056,1966.2394377396342,1966.2100473487237,1966.1825770179535,1966.1570328510545,1966.1334209444794,1966.1117473758047,1966.092018203477,1966.074239489674,1966.0584173324842,1966.0445578725128,1966.0326672722945,1966.0227516940672,1966.014817277537,1966.008870109513,1966.0049161915022,1966.0029614133762,1966.0030115456882,1966.0050722636238,1966.0091491790508,1966.015247830769,1966.0233736353935,1966.0335318544503,1966.0457276028458,1966.0599658771987,1966.0762515801048,1966.0945895342445,1966.1149844920135,1966.13744115001,1966.1619641586394,1966.1885580960027,1966.21722741256,1966.247976393633,1966.2808091559725,1966.3157296609472,1966.352741735429,1966.3918490950957,1966.4330553539296,1966.4763640081392,1966.5217784107385,1966.5693017680208,1966.6189371587361,1966.6706875613731,1966.7245559033329,1966.7805451182046,1966.838658148661,1966.8988978941638,1966.9612671765085,1967.0257687613384,1967.0924053987196,1967.161179824343,1967.2320947209562,1967.3051526891109,1967.3803562471087,1967.4577078431034,1967.5372098643502,1967.6188646411663,1967.7026744533114,1967.7886415509613,1967.876768178912,1967.9670565695308,1968.0595089060741,1968.1541273010066,1968.2509138144678,1968.3498704913893,1968.4509993819647,1968.5543025401948,1968.6597820086258,1968.7674397775124,1968.8772777253064,1968.9892975773848,1969.1035008931667,1969.2198890718762,1969.3384633838537,1969.4592250205137,1969.5821751341466,1969.7073148574204,1969.8346452985254,1969.9641674937054,1970.0958823382705,1970.2297905565454,1970.3658927180545,1970.5041892622123,1970.644680526651,1970.7873667771578,1970.9322482083846,1971.079324914929,1971.228596872541,1971.3800639509632,1971.5337259316248,1971.689582483938,1971.8476331058785,1972.0078770864582,1972.1703135168725,1972.3349413239443,1972.5017592934125,1972.6707660769785,1972.8419601924397,1973.0153400213756,1973.1909038015447,1973.3686496079076,1973.5485753267399,1973.7306786459574,1973.914957080725,1974.1014080160921,1974.290028726894,1974.4808163696432,1974.6737679731918,1974.8688804415501,1975.0661505648047,1975.2655750340814,1975.4671504564924,1975.670873355465,1975.8767401394093,1976.0847470476554,1976.2948901004293,1976.507165065047,1976.721567439133,1976.9380924484292,1977.1567350531145,1977.3774899610025,1977.6003516439755,1977.8253143515615,1978.0523721269337,1978.281518822085,1978.512748089862,1978.7460533544831,1978.9814277913754,1979.2188643301226,1979.4583556655143,1979.6998942576283,1979.9434723205377,1980.1890818122238,1980.4367144293428,1980.686361599953,1980.9380144673003,1981.1916638683178,1981.4473003145472,1981.7049139693943,1981.964494633082,1982.2260317766809,1982.4895146162914,1982.7549321649024,1983.0222732440661,1983.2915264886701,1983.562680371165,1983.8357232387666,1984.1106433263008,1984.3874287154824,1984.6660672661887,1984.9465465740907,1985.2288539647877,1985.512976490364,1985.7989009028079,1986.0866136213324,1986.3761007370113,1986.6673480531053,1986.960341110772,1987.2550651758147,1987.5515052120318,1987.8496458776822,1988.1494715454685,1988.4509663119618,1988.7541139741525,1989.0588979938188,1989.365301490692,1989.6733072656295,1989.9828978249998,1990.2940554050533,1990.6067619906041,1990.9209992902904,1991.2367486740934,1991.5539911307267,1991.8727072676143,1992.1928773327688,1992.5144812435572,1992.8374986118044,1993.1619087481981,1993.4876906476143,1993.8148229801143,1994.1432841038418,1994.4730520839967,1994.8041046858336,1995.1364193429042,1995.4699731362468,1995.8047428027762,1996.1407047558394,1996.4778350927793,1996.8161095870742,1997.1555036760058,1997.4959924422362,1997.8375505929416,1998.1801524559783,1998.5237719934892,1998.8683828207775,1999.2139582397779,1999.5604712814488,1999.9078947197577,2000.2562010532022,2000.6053624924139,2000.9553509781817,2001.3061382128608,2001.6576956710815,2002.00999458652,2002.3630059354161,2002.716700420086,2003.0710484520248,2003.4260201479885,2003.7815853394598,2004.1377135821085,2004.494374164033,2004.8515361135903,2005.2091681970826,2005.5672389062945,2005.9257164533326,2006.2845687873694,2006.6437636130072,2007.00326836523,2007.3630501466193,2007.723075696216,2008.083311436276,2008.4437235640587,2008.8042781257618,2009.1649410535374,2009.5256781830303,2009.886455269701,2010.2472379978428,2010.6079919506526,2010.968682548248,2011.3292750161156,2011.6897344241515,2012.050025756944,2012.410113942267,2012.7699638300792,2013.1295401816674,2013.4888077123433,2013.8477311556478,2014.2062752756233,2014.564404823508,2014.9220844968659,2015.279278916975,2015.635952609468,2015.9920699906515,2016.3475953623524,2016.7024929185307,2017.0567267786753,2017.4102610414884,2017.7630598280264,2018.115087302936,2018.4663076879874,2018.8166852865663,2019.1661845130393,2019.514769895348,2019.8624060496156,2020.2090576628718,2020.5546895037796,2020.8992664495968,2021.2427535115203,2021.5851158515188,2021.9263187845647,2022.2663277577508,2022.6051083302223,2022.9426262050513,2023.2788473045277,2023.6137378186831,2023.947264199051,2024.2793931317444,2024.6100915255543,2024.939326517502,2025.2670654808353,2025.5932760330338,2025.9179260462593,2026.2409836549755,2026.5624172583034,2026.8821955163007,2027.2002873352994,2027.5166618569035,2027.8312884851362,2028.1441369444308,2028.4551773189728,2028.7643800579708,2029.0717159626834,2029.3771561568242,2029.6806720472407,2029.9822352947488,2030.2818177947167,2030.579391660909,2030.874929223541,2031.168403041546,2031.4597859176993,2031.7490509222712,2032.0361714276505,2032.3211211389237,2032.603874112297,2032.884404766636,2033.1626878986688,2033.438698694149,2033.712412704952,2033.9838057973798,2034.252854118334,2034.5195340992336,2034.7838224818577,2035.0456963539389,2035.3051331851805,2035.5621108486812,2035.8166076265545,2036.0686022111004,2036.3180737063983,2036.5650016295135,2036.8093659084695,2037.0511468729385,2037.2903252327742,2037.5268820374947,2037.7607986264495,2037.9920566102437,2038.2206379166892,2038.4465248619251,2038.6697001635403,2038.8901468920446,2039.1078484381794,2039.32278853867,2039.5349513308008,2039.7443213883457,2039.950883729522,2040.1546238063008,2040.35552746574,2040.553580900787,2040.7487706441075,2040.9410836061525,2041.1305071022923,2041.3170288434542,2041.5006369093312,2041.6813197260758,2041.8590660537475,2042.033864984735,2042.2057059592355,2042.374578792521,2042.5404736981654,2042.7033813011476,2042.8632926388032,2043.02019914354,2043.1740926142093,2043.3249651939927,2043.4728093600697,2043.617617916148,2043.759383977709,2043.8981009540282,2044.0337625440097,2044.1663627466446,2044.2958958694626,2044.422356528483,2044.5457396522418,2044.6660405085588,2044.783254747149,2044.8973784252125,2045.0084080026168,2045.116340320464,2045.2211725744053,2045.3229022891917,2045.4215273058214,2045.517045786966,2045.6094562248497,2045.6987574260238,2045.7849484766866,2045.8680287287157,2045.9479978368395,2046.024855820578,2046.0986030945578,2046.1692404594928,2046.23676908994,2046.3011905354642,2046.3625067262847,2046.4207199728576,2046.4758329593922,2046.5278487418498,2046.5767707593513,2046.6226028447948,2046.66534920344,2046.7050143667655,2046.741603166226,2046.775120736646,2046.805572533427,2046.8329643716856,2046.8573024674376,2046.8785934163232,2046.8968441151465,2046.9120617179199,2046.9242536795634,2046.9334278385707,2046.9395924558785,2046.9427562002018,,,,,,,,,,,,,,,,,,,,,,,,,,,,,,,,,,,,,,,,,,,,,,,,,,,,,,,,,,,,,,,,,,,,,,,,,,,,,,,,,,,,,,,,,,,,,,,,,,,,,,,,,,,,,,,,,,,,,,,,,,,,,,,,,,,,,,,,,,,,,,,,,,,,,,,,,,,,,,,,,,,,,,,,,,,,,,,,,,,,,,,,,,,,,,,,,,,,,,,,,,,,,,,,,,,,,,,,,,,,,,,,,,,,,,,,,,,,,,,,,,,,,,,,,,,,,,,,,,,,,,,,,,,,,,,,,,,,,,,,,,,,,,,,,,,,,,,,,,,,,,,,,,,,,,,,,,,,,,,,,,,,,,,,,,,,,,,,,,,,,,,,,,,,,,,,,,,,,,,,,,,,,,,,,,,,,,,,,,,,,,,,,,,,,,,,,,,,,,,,,,,,,,,,,,,,,,,,,,,,,,,,,,,,,,,,,,,,,,,,,,,,,,,,,,,,,,,,,,,,,,,,,,,,,,,,,,,,,,,,,,,,,,,,,,,,,,,,,,,,,,,,,,,,,,,,,,,,,,,,,,,,,,,,,,,,,,,,,,,,,,,,,,,,,,,,,,,,,,,,,,,,,,,,,,,,,,,,,,,,,,,,,,,,,,,,,,,,,,,,,,,,,,,,,,,,,,,,,,,,,,,,,,,,,,,,,,,,,,,,,,,,,,,,,,,,,,,,,,,,,,,,,,,,,,,,,,,,,,,,,,,,,,,,,,,,,,,,,,,,,,,,,,,,,,,,,,,,,,,,,,,,,,,,,,,,,,,,,,,,,,,,,,,,,,,,,,,,,,,,,,,,,,,,,,,,,,,,,,,,,,,,,,,,,,,,,,,,,,,,,,,,,,,,,,,,,,,,,,,,,,,,,,,,,,,,,,,,,,,,,,,,,,,,,,,,,,,,,,,,,,,,,,,,,,,,,,,,,,,,,,,,,,,,,,,,,,,,,,,,,,,,,,,,,,,,,,,,,,,,,,,,,,,,,,,,,,,,,,,,,,,,,,,,,,,,,,,,,,,,,,,,,,,,,,,,,,,,,,,,,,,,,,,,,,,,,,,,,,,,,,,,,,,,,,,,,,,,,,,,,,,,,,,,,,,,,,,,,,,,,,,,,,,,,,,,,,,,,,,,,,,,,,,,,,,,,,,,,,,,,,,,,,,,,,,,,,,,,,,,,,,,,,,,,,,,,,,,,,,,,,,,,,,,,,,,,,,,,,,,,,,,,,,,,,,,,,,,,,,,,,,,,,,,,,,,,,,,,,,,,,,,,,,,,,,,,,,,,,,,,,,,,,,,,,,,,,,,,,,,,,,,,,,,,,,,,,,,,,,,,,,,,,,,,,,,,,,,,,,,,,,,,,,,,,,,,,,,,,,,,,,,,,,,,,,,,,,,,,,,,,,,,,,,,,,,,,,,,,,,,,,
2039.2787948956789,2039.2758982257983,2039.270051746852,2039.2612573265646,2039.2495171315502,2039.2348336711864,2039.2172098260917,2039.196648846191,2039.1731543366307,2039.1467302497974,2039.1173808854717,2039.0851108755805,2039.0499251166352,2039.0118286790605,2038.9708267847038,2038.9269248582011,2038.8801285645693,2038.8304437883942,2038.7778765984315,2038.7224332674032,2038.664120342122,2038.6029446961877,2038.5389135449716,2038.4720344358705,2038.402315200037,2038.3297638777576,2038.2543886661604,2038.1761978973739,2038.095200026032,2038.0114036265368,2037.924817400481,2037.8354501820609,2037.743310937826,2037.6484087636088,2037.550752876602,2037.4503526070494,2037.3472174037481,2037.2413568521463,2037.13278069124,2037.0214988304906,2036.9075213695967,2036.790858610577,2036.671521059322,2036.5495194226987,2036.424864600806,2036.297567682492,2036.1676399656378,2036.0350929973383,2035.8999385893503,2035.7621887739192,2035.6218557312222,2035.4789517561828,2035.333489273175,2035.1854808552093,2035.034939230962,2034.8818772812733,2034.7263080141583,2034.5682445248242,2034.407699978828,2034.2446876451552,2034.079220959334,2033.9113135780492,2033.7409794118614,2033.568232641308,2033.3930877232835,2033.2155593848584,2033.035662587089,2032.8534124681546,2032.6688243059814,2032.4819135113114,2032.2926956289007,2032.1011863306182,2031.907401402475,2031.7113567341003,2031.5130683094517,2031.3125521930758,2031.109824511922,2030.9049014375742,2030.697799176614,2030.4885339707323,2030.2771220988864,2030.0635798737887,2029.8479236339483,2029.6301697466802,2029.410334640338,2029.1884348511692,2028.9644870442146,2028.7385080033896,2028.510514624824,2028.2805239345566,2028.048553110301,2027.8146194667102,2027.5787404081966,2027.3409333931252,2027.1012159199274,2026.8596055140388,2026.61611970349,2026.3707759896406,2026.123591824417,2025.8745845875617,2025.6237715736331,2025.3711700325694,2025.1167972540818,2024.8606706273126,2024.6028076554683,2024.3432259485567,2024.0819431974714,2023.818977136324,2023.5543455133056,2023.288066066427,2023.0201564968377,2022.7506344543258,2022.479517539057,2022.2068233102207,2021.932569303207,2021.6567730565316,2021.3794521412044,2021.1006241856453,2020.8203068912785,2020.5385180408334,2020.2552754892108,2019.9705971052665,2019.6845006795234,2019.3970038667862,2019.1081241884046,2018.8178790665954,2018.5262858750039,2018.2333619933302,2017.9391248319434,2017.6435918029465,2017.346780261231,2017.0487074577097,2016.7493905168997,2016.4488464339893,2016.1470920938214,2015.8441443044885,2015.5400198285042,2015.2347354042433,2014.9283077629275,2014.620753654138,2014.3120898680916,2014.0023332132923,2013.6915004556515,2013.3796082718113,2013.0666732268203,2012.7527117522206,2012.4377401172462,2012.1217744008368,2011.8048304855686,2011.4869240941912,2011.1680708537592,2010.8482863512484,2010.5275861672733,2010.2059858874927,2009.8835010872472,2009.5601473084912,2009.2359400667558,2008.9108948869214,2008.5850273183046,2008.2583528913297,2007.9308870389054,2007.6026450352558,2007.2736419680218,2006.9438927493186,2006.6134121961732,2006.2822151365278,2005.9503164211224,2005.6177308388212,2005.2844730603454,2004.9505576745112,2004.6159992605817,2004.2808124115318,2003.9450117029514,2003.6086116615465,2003.2716267482508,2002.9340713506722,2002.5959598031316,2002.257306429831,2001.918125574638,2001.5784316040929,2001.2382388986587,2000.8975618435647,2000.5564148220892,2000.2148122153374,1999.8727684129756,1999.5302978312714,1999.1874149299192,1998.8441342240012,1998.5004702833726,1998.1564377052723,1997.8120510642182,1997.4673248590623,1997.1222734710038,1996.7769111581183,1996.431252118049,1996.0853105843735,1995.7391008726659,1995.392637365295,1995.045934499878,1994.6990068015523,1994.3518689282319,1994.0045356663682,1993.6570218788372,1993.309342458509,1992.961512293989,1992.6135462321151,1992.2654590510047,1991.9172654509523,1991.5689800587188,1991.2206174500766,1990.872192186557,1990.5237188501674,1990.1752120679675,1989.8266865212292,1989.4781569326863,1989.1296380387753,1988.7811445610628,1988.4326911845715,1988.0842925539557,1987.7359633001072,1987.3877180732497,1987.039571530595,1986.6915382822092,1986.3436328575704,1985.9958697232441,1985.6482633192218,1985.3008280676704,1984.9535783524677,1984.6065285040129,1984.2596928047255,1983.9130855099622,1983.5667208843472,1983.2206132340452,1982.8747768911578,1982.5292261567372,1982.1839752644873,1981.8390383931505,1981.4944296930908,1981.1501632804184,1980.8062532006854,1980.4627134043421,1980.119557751405,1979.7768000303188,1979.4344539780377,1979.0925332968543,1978.7510516696054,1978.4100227833949,1978.0694603610204,1977.7293781826627,1977.389790092964,1977.050710002424,1976.712151886359,1976.374129772497,1976.0366577009813,1975.6997496673305,1975.3634195958239,1975.0276813725222,1974.6925488969484,1974.3580360793978,1974.0241567850967,1973.6909247901222,1973.3583537689647,1973.0264573084562,1972.6952489732198,1972.3647424068195,1972.0349513935485,1971.7058898496216,1971.3775717814979,1971.0500112506918,1970.723222354401,1970.397219220737,1970.07201601977,1969.7476269834972,1969.4240664225606,1969.1013487360601,1968.7794884160887,1968.4585000473917,1968.1383983001263,1967.8191979108476,1967.5009136569975,1967.18356034356,1966.8671528104014,1966.5517059347362,1966.2372345861181,1965.9237535457228,1965.6112774536168,1965.2998208047075,1964.9893979807941,1964.6800233321092,1964.3717112884708,1964.0644764217413,1963.7583334218637,1963.4532970229868,1963.1493819210652,1962.8466027040279,1962.5449738245386,1962.2445096372594,1961.945224473431,1961.6471327061145,1961.3502487902713,1961.0545872720004,1960.760162752734,1960.4669898238094,1960.1750830099568,1959.8844567363112,1959.5951253282783,1959.3071030661645,1959.0204042706316,1958.735043354874,1958.4510348309436,1958.1683932941569,1957.8871333794968,1957.6072696956955,1957.3288167751273,1957.0517890525,1956.7762008573313,1956.5020664088502,1956.2293998198136,1955.9582151307434,1955.6885263664676,1955.4203475695267,1955.1536927885347,1954.8885760519265,1954.6250113713118,1954.363012774029,1954.1025943154063,1953.843770031371,1953.5865538618352,1953.330959615053,1953.077000982271,1952.8246915592688,1952.5740448605832,1952.325074340216,1952.0777934289622,1951.8322155794388,1951.5883542895972,1951.3462230884957,1951.10583549731,1950.8672049822208,1950.6303449113443,1950.395268539648,1950.1619890413217,1949.9305195628294,1949.700873243898,1949.4730632015735,1949.2471025207576,1949.0230042788126,1948.8007815746164,1948.5804475024288,1948.3620150774655,1948.1454971910764,1947.9309066340732,1947.7182561512823,1947.5075584770188,1947.2988263429572,1947.0920724705734,1946.8873095428828,1946.6845501607488,1946.4838068101315,1946.2850918487982,1946.0884175100605,1945.8937959320592,1945.7012391983947,1945.5107593507498,1945.3223683706665,1945.1360781556264,1944.9519004866017,1944.7698470004575,1944.5899292219813,1944.412158647831,1944.2365468036905,1944.0631052442072,1943.8918455237028,1943.7227791567277,1943.5559175786027,1943.3912721246065,1943.228854034711,1943.0686744672269,1942.9107445014802,1942.7550751291162,1942.6016772417354,1942.4505616087783,1942.3017388452524,1942.1552193851253,1942.0110134672786,1941.869131131997,1941.729582228395,1941.5923764323782,1941.4575232751376,1941.3250321752798,1941.1949124543087,1941.0671733228794,1940.941823852432,1940.8188729565454,1940.6983293868836,1940.5802017319647,1940.464498409829,1940.3512276623146,1940.2403975704144,1940.1320160870614,1940.026091056513,1939.9226302045045,1939.821641109725,1939.7231311687883,1939.6271075636173,1939.5335772515373,1939.4425469967316,1939.354023421564,1939.2680130315118,1939.1845222076263,1939.103557202223,1939.0251241625488,1938.949229156867,1938.8758781473791,1938.8050769168767,1938.73683102743,1938.6711458545205,1938.608026656862,1938.54747861902,1938.4895068562855,1938.4341164146615,1938.3813122878737,1938.33109943193,1938.283482733006,1938.2384669367718,1938.196056610564,1938.1562561797855,1938.1190699886326,1938.0845022987307,1938.0525572260842,1938.0232387027581,1937.9965505115706,1937.97249633781,1937.9510797401956,1937.9323040613717,1937.916172403704,1937.902687688229,1937.8918527152111,1937.8836702112926,1937.8781428770315,1937.8752734064294,1937.8750644735794,1937.87751870469,1937.8826386208802,1937.890426562297,1937.9008846523782,1937.9140148111896,1937.9298187699649,1937.9482980624985,1937.9694540161183,1937.993287780777,1938.0198003889602,1938.0489927920455,1938.080865847959,1938.1154202763587,1938.1526565935112,1938.1925750430978,1938.2351755647326,1938.280457826972,1938.3284212838373,1938.3790651826353,1938.4323885210472,1938.4883900110974,1938.5470680698818,1938.6084208390828,1938.6724462641098,1938.7391422129801,1938.8085065412224,1938.880537054525,1938.955231432822,1939.0325872119756,1939.1126018275122,1939.1952726400873,1939.2805968927712,1939.368571635456,1939.45919368373,1939.5524596223638,1939.6483658189222,1939.7469084373588,1939.848083454433,1939.9518866704307,1940.058313711347,1940.1673600229392,1940.2790208489378,1940.3932912120817,1940.5101659458512,1940.6296397687822,1940.7517073336107,1940.8763632252806,1941.0036019305328,1941.1334177916574,1941.2658049557654,1941.400757345139,1941.5382686567796,1941.6783323655866,1941.8209416991244,1941.9660895900556,1942.1137686565517,1942.2639712484138,1942.4166895305034,1942.571915543434,1942.7296412261123,1942.8898584074282,1943.0525587516756,1943.2177336820505,1943.3853743536285,1943.5554716823165,1943.728016371352,1943.9029989110118,1944.0804095645071,1944.260238347375,1944.442475005229,1944.6271090028554,1944.8141295327666,1945.0035255314485,1945.195285683016,1945.389398409056,1945.5858518580528,1945.7846338972306,1945.9857321157408,1946.189133865566,1946.3948263295918,1946.6027965620744,1946.8130314779746,1947.0255178077907,1947.240242026411,1947.4571902734313,1947.6763483087566,1947.8977015217404,1948.1212349618145,1948.346933351657,1948.5747810792504,1948.804762183433,1949.0368603309178,1949.271058792485,1949.5073404495904,1949.7456878293585,1949.986083139969,1950.228508313332,1950.4729450615453,1950.7193749207606,1950.9677792710982,1951.2181393338317,1951.4704361344786,1951.7246504492432,1951.9807627822818,1952.2387533790636,1952.4986022320127,1952.7602890471858,1953.0237931918734,1953.2890936685562,1953.5561691213106,1953.8249978486913,1954.095557817821,1954.3678266817135,1954.6417817888782,1954.9174001823628,1955.1946585951368,1955.4735334430268,1955.754000813586,1956.0360364513008,1956.3196157423822,1956.60471370766,1956.8913050100743,1957.179363974733,1957.4688646178854,1957.7597806771048,1958.052085628071,1958.3457526843047,1958.6407547940544,1958.9370646497487,1959.2346547071782,1959.5334972038597,1959.8335641834738,1960.1348275267892,1960.4372589675659,1960.740830088977,1961.0455123216445,1961.3512769599276,1961.6580951859094,1961.965938073904,1962.2747765738593,1962.5845814886668,1962.8953234380774,1963.2069728136853,1963.5194997590586,1963.8328741794835,1964.1470657646823,1964.4620440370895,1964.7777784143193,1965.0942382298413,1965.4113927061826,1965.729210933806,1966.0476618840617,1966.3667144428273,1966.6863374457666,1967.006499705875,1967.3271700114053,1967.6483170629322,1967.9699093783634,1968.291915243791,1968.6143027219537,1968.9370396785455,1969.2600938267806,1969.5834327910245,1969.9070241566274,1970.23083549298,1970.5548343672365,1970.8789883689878,1971.2032651434583,1971.5276324088736,1971.8520579531394,1972.1765096301128,1972.500955369263,1972.8253631837072,1973.1497011437618,1973.4739373220946,1973.7980397611898,1974.1219764895025,1974.4457155664156,1974.7692251304466,1975.0924734381226,1975.4154288768923,1975.7380599378737,1976.0603351756192,1976.3822232076468,1976.703692753323,1977.024712661391,1977.3452519046396,1977.6652795628056,1977.98476481725,1978.30367695821,1978.6219853985494,1978.9396597045509,1979.2566696319868,1979.572985122434,1979.8885762602392,1980.2034132477459,1980.5174664340798,1980.8307063768032,1981.1431038999206,1981.4546301275489,1981.765256480266,1982.0749546442844,1982.383696541845,1982.6914543040534,1982.9982002526472,1983.3039069304546,1983.6085471724332,1983.9120941442554,1984.2145213078752,1984.515802363162,1984.8159112475623,1985.1148221933765,1985.412509766789,1985.7089488533504,1986.0041146211536,1986.2979825010582,1986.5905281884266,1986.8817276387822,1987.1715570318293,1987.4599927302102,1987.7470112987203,1988.03258957871,1988.3167047312552,1988.5993342024415,1988.8804556598516,1989.16004697937,1989.4380862851476,1989.714551987952,1989.9894228101396,1990.2626778029291,1990.534296331636,1990.8042580321085,1991.0725427834059,1991.3391307194343,1991.6040022564162,1991.8671381025204,1992.128519246811,1992.3881269494252,1992.645942743934,1992.9019484543187,1993.1561262354935,1993.4084586268184,1993.658928570737,1993.9075193583947,1994.154214534293,1994.3989978281406,1994.6418531305299,1994.8827645002748,1995.1217162167939,1995.358692860501,1995.5936793631852,1995.826661015398,1996.057623461683,1996.2865526982514,1996.513435059717,1996.7382571705484,1996.961005873001,1997.18166818955,1997.4002313534954,1997.6166828586504,1997.8310104433156,1998.0432020121953,1998.2532455826681,1998.4611292931481,1998.66684144432,1998.8703705464761,1999.0717053607802,1999.2708349247246,1999.467748566644,1999.66243591822,1999.8548869196911,2000.045091816158,2000.2330411474059,2000.4187257231397,2000.602136584032,2000.7832649631937,2000.9621022573929,2001.138640018983,2001.3128699819258,2001.4847840991858,2001.6543745416013,2001.8216336582245,2001.9865539415473,2002.1491280073462,2002.3093485781956,2002.4672084775432,2002.6227006355675,2002.775818099513,2002.9265540537772,2003.0749018444785,2003.220854983344,2003.3644071297078,2003.5055520814497,2003.6442837963757,2003.7805964213271,2003.9144842815413,2004.0459418327048,2004.174963627221,2004.3015443157908,2004.4256786697015,2004.5473616157076,2004.666588274579,2004.78335398222,2004.897654285243,2005.0094849191157,2005.1188417717135,2005.225720841212,2005.33011821915,2005.4320301221912,2005.5314529486523,2005.6283833119214,2005.7228180422474,2005.8147541779952,2005.9041889508346,2005.9911197689137,2006.0755442162786,2006.157460068538,2006.2368653040808,2006.3137581019205,2006.388136832256,2006.4600000446105,2006.5293464563958,2006.5961749459534,2006.6604845504824,2006.7222744692563,2006.7815440778124,2006.8382929494578,2006.892520859754,2006.9442277508515,2006.9934136808286,2007.0400788168654,2007.0842234738723,2007.1258481413706,2007.1649534702217,2007.201540239901,2007.2356093339015,2007.2671617293522,2007.2961985036955,2007.3227208742408,2007.3467302531546,2007.3682282651382,2007.3872167233355,2007.4036975971421,2007.4176729690764,2007.4291449924785,2007.4381159092707,2007.4445881233173,2007.4485642482407,,,,,,,,,,,,,,,,,,,,,,,,,,,,,,,,,,,,,,,,,,,,,,,,,,,,,,,,,,,,,,,,,,,,,,,,,,,,,,,,,,,,,,,,,,,,,,,,,,,,,,,,,,,,,,,,,,,,,,,,,,,,,,,,,,,,,,,,,,,,,,,,,,,,,,,,,,,,,,,,,,,,,,,,,,,,,,,,,,,,,,,,,,,,,,,,,,,,,,,,,,,,,,,,,,,,,,,,,,,,,,,,,,,,,,,,,,,,,,,,,,,,,,,,,,,,,,,,,,,,,,,,,,,,,,,,,,,,,,,,,,,,,,,,,,,,,,,,,,,,,,,,,,,,,,,,,,,,,,,,,,,,,,,,,,,,,,,,,,,,,,,,,,,,,,,,,,,,,,,,,,,,,,,,,,,,,,,,,,,,,,,,,,,,,,,,,,,,,,,,,,,,,,,,,,,,,,,,,,,,,,,,,,,,,,,,,,,,,,,,,,,,,,,,,,,,,,,,,,,,,,,,,,,,,,,,,,,,,,,,,,,,,,,,,,,,,,,,,,,,,,,,,,,,,,,,,,,,,,,,,,,,,,,,,,,,,,,,,,,,,,,,,,,,,,,,,,,,,,,,,,,,,,,,,,,,,,,,,,,,,,,,,,,,,,,,,,,,,,,,,,,,,,,,,,,,,,,,,,,,,,,,,,,,,,,,,,,,,,,,,,,,,,,,,,,,,,,,,,,,,,,,,,,,,,,,,,,,,,,,,,,,,,,,,,,,,,,,,,,,,,,,,,,,,,,,,,,,,,,,,,,,,,,,,,,,,,,,,,,,,,,,,,,,,,,,,,,,,,,,,,,,,,,,,,,,,,,,,,,,,,,,,,,,,,,,,,,,,,,,,,,,,,,,,,,,,,,,,,,,,,,,,,,,,,,,,,,,,,,,,,,,,,,,,,,,,,,,,,,,,,,,,,,,,,,,,,,,,,,,,,,,,,,,,,,,,,,,,,,,,,,,,,,,,,,,,,,,,,,,,,,,,,,,,,,,,,,,,,,,,,,,,,,,,,,,,,,,,,,,,,,,,,,,,,,,,,,,,,,,,,,,,,,,,,,,,,,,,,,,,,,,,,,,,,,,,,,,,,,,,,,,,,,,,,,,,,,,,,,,,,,,,,,,,,,,,,,,,,,,,,,,,,,,,,,,,,,,,,,,,,,,,,,,,,,,,,,,,,,,,,,,,,,,,,,,,,,,,,,,,,,,,,,,,,,,,,,,,,,,,,,,,,,,,,,,,,,,,,,,,,,,,,,,,,,,,,,,,,,,,,,,,,,,,,,,,,,,,,,,,,,,,,,,,,,,,,,,,,,,,,,,,,,,,,,,,,,,,,,,,,,,,,,,,,,,,,,,,,,,,,,,,,,,,,,,,,,,,,,,,,,,,,,,,,,,,,,,,,,,,,,,,,,,,,
2088.693675154465,2088.692026401043,2088.6866382639428,2088.677519140828,2088.6646778513223,2088.648123638286,2088.627866180879,2088.603915616176,2088.5762825510574,2088.5449780546624,2088.5100136386836,2088.4714012348536,2088.429153175291,2088.3832821822,2088.333801368555,2088.2807242392055,2088.224064678216,2088.163836917161,2088.10005548518,2088.032735154196,2087.9618909190413,2087.887538044552,2087.8096921467645,2087.728369240462,2087.6435857413016,2087.5553584537647,2087.463704551828,2087.3686415576276,2087.2701873436768,2087.168360158231,2087.063178637692,2086.9546617813053,2086.8428289023454,2086.727699585001,2086.609293657921,2086.4876311868456,2086.3627324916033,2086.2346181789526,2086.1033091742274,2085.968826744077,2085.8311925025905,2085.6904283906706,2085.5465566379758,2085.3995997297543,2085.249580387088,2085.0965215597303,2084.940446431138,2084.7813784320424,2084.6193412593134,2084.454358895654,2084.2864556130867,2084.1156559411625,2083.941984613278,2083.765466527213,2083.5861267300324,2083.4039904119236,2083.219082896412,2083.031429624905,2082.8410561400406,2082.6479880723045,2082.452251133146,2082.2538711142065,2082.0528738902103,2081.849285426745,2081.6431317913043,2081.434439158257,2081.223233800454,2081.009542076378,2080.793390431515,2080.5748054139444,2080.3538136842594,2080.1304420084666,2079.904717244409,2079.67666633997,2079.4463163438695,2079.21369440958,2078.97882777613,2078.741743735938,2078.502469615243,2078.261032772395,2078.017460596975,2077.771780495539,2077.524019868046,2077.274206089977,2077.0223665050185,2076.7685284266836,2076.5127191521174,2076.254965980786,2075.995296219382,2075.733737172138,2075.470316128716,2075.205060347247,2074.9379970385908,2074.669153379418,2074.3985565512708,2074.126233764217,2073.852212242783,2073.5765191879595,2073.2991817335437,2073.0202269081674,2072.739681621679,2072.4575726904886,2072.17392687874,2071.8887709115033,2071.6021314571426,2071.314035110908,2071.0245083907125,2070.733577737783,2070.4412695217866,2070.1476100496166,2069.852625571347,2069.556342280108,2069.258786302238,2068.95998366837,2068.6599602731712,2068.358741855372,2068.0563540155376,2067.7528222516967,2067.4481719824025,2067.1424285519474,2066.835617231125,2066.5277632204306,2066.2188916601667,2065.909027656785,2065.5981963193763,2065.286422773043,2064.9737321211564,2064.660149379625,2064.3456994351086,2064.0304070381267,2063.7142968111875,2063.3973932690906,2063.0797208441036,2062.761303891267,2062.4421666730077,2062.1223333474145,2061.8018279699036,2061.4806744948864,2061.1588967600014,2060.8365184573627,2060.5135631129306,2060.190054076838,2059.866014525485,2059.541467496097,2059.2164359456306,2058.8909427906065,2058.565010914092,2058.2386631548293,2057.9119222817635,2057.584810960863,2057.257351732085,2056.9295669960866,2056.6014789997107,2056.2731098202657,2055.944481353048,2055.615615305765,2055.2865332002634,2054.957256384401,2054.6278060650156,2054.298203354288,2053.9684692998712,2053.6386248894664,2053.308691043226,2052.9786886012894,2052.6486383101,2052.3185608208973,2051.9884767137683,2051.6584065310285,2051.3283707826117,2050.998389922652,2050.6684843374264,2050.33867436981,2050.008980354282,2049.679422612573,2049.3500214115847,2049.0207969367225,2048.6917693066102,2048.362958599571,2048.034384847647,2047.706068000193,2047.3780278984211,2047.0502842767178,2046.722856773296,2046.3957649339436,2046.0690282084709,2045.7426659564824,2045.416697482363,2045.0911420885147,2044.766019111554,2044.4413479329435,2044.1171479689322,2043.793438623976,2043.4702392279298,2043.147569021919,2042.8254471969524,2042.5038929215757,2042.1829253244898,2041.862563464585,2041.542826342763,2041.2237329531063,2040.9053023194406,2040.587553495377,2040.2705055505558,2039.9541775662185,2039.6385886417277,2039.32375789297,2039.0097044215415,2038.6964472737855,2038.3840054412083,2038.072397902679,2037.7616436520166,2037.4517616805383,2037.1427709381003,2036.8346903091438,2036.5275386102378,2036.2213345949183,2035.9160969609568,2035.6118443677653,2035.3085954757032,2035.0063689930855,2034.7051836911353,2034.4050583848473,2034.1060119146587,2033.8080631402818,2033.5112309345318,2033.2155341690313,2032.9209916958525,2032.6276223307732,2032.3354448292234,2032.044477861007,2031.7547400170663,2031.4662498470748,2031.1790258872818,2030.8930866627916,2030.608450682531,2030.3251364459736,2030.0431624604048,2029.762547251281,2029.4833093555392,2029.2054673035393,2028.9290395981566,2028.6540446967053,2028.3805010046185,2028.1084268873763,2027.8378406913494,2027.5687607569257,2027.3012054210787,2027.0351930093755,2026.7707418048517,2026.5078700047045,2026.246595704157,2025.9869369119592,2025.728911557764,2025.4725374617608,2025.2178322925342,2024.9648135719738,2024.713498726424,2024.4639051211889,2024.2160500475593,2023.9699506956263,2023.725624162381,2023.4830874934792,2023.2423577103855,2023.0034517985603,2022.7663866773762,2022.5311791805725,2022.297846052519,2022.066403950554,2021.8368694497456,2021.6092590488556,2021.3835891734539,2021.1598761757714,2020.9381363329205,2020.7183858414498,2020.5006408090458,2020.2849172494682,2020.0712310823408,2019.8595981309,2019.6500341087765,2019.442554601083,2019.2371750576608,2019.0339108005112,2018.8327770344615,2018.6337888614662,2018.4369613009817,2018.242309310732,2018.0498478029974,2017.8595916588615,2017.6715557509622,2017.4857549568992,2017.3022041117688,2017.1209179119985,2016.9419108621726,2016.7651973143468,2016.5907915434552,2016.4187077695542,2016.2489601216298,2016.0815626009824,2015.9165290592034,2015.7538731781651,2015.593608459731,2015.43574822803,2015.2803056333357,2015.1272936522803,2014.976725083994,2014.8286125397403,2014.6829684288793,2014.5398049488772,2014.3991340789478,2014.2609675785477,2014.125317002895,2013.99219373186,2013.8616089915379,2013.7335738648496,2013.6080992972581,2013.4851960927303,2013.3648749011636,2013.247146215938,2013.1320203982289,2013.019507721181,2012.9096184144748,2012.8023626983231,2012.6977507882434,2012.5957928450389,2012.4964988939296,2012.399878774905,2012.3059421368785,2012.2146984391252,2012.1261569368805,2012.0403266685432,2011.9572164838394,2011.876835106048,2011.799191169054,2011.724293199613,2011.6521495801244,2011.5827685442496,2011.51615820659,2011.4523265911328,2011.3912816523743,2011.3330312879057,2011.2775833144667,2011.2249454135517,2011.1751250932284,2011.1281296803634,2011.0839663209463,2011.0426419722812,2011.0041633890726,2010.9685371131447,2010.9357694680125,2010.9058665587065,2010.8788342865914,2010.8546783755253,2010.8334043886694,2010.8150177282398,2010.7995236303714,2010.7869271684813,2010.7772332643258,2010.7704466970058,2010.7665721083056,2010.7656140076049,2010.7675767751498,2010.7724646628692,2010.7802817854383,2010.791032084543,2010.8047192829836,2010.821346879737,2010.8409181871923,2010.8634363643127,2010.8889044339535,2010.9173252940752,2010.948701714334,2010.983036318856,2011.0203315625024,2011.0605896852076,2011.1038126545304,2011.1500021475424,2011.1991595765119,2011.251286119845,2011.3063827554402,2011.3644502903724,2011.4254893426846,2011.4895002797475,2011.5564831764818,2011.6264378198098,2011.6993637349983,2011.7752602111705,2011.8541263194945,2011.9359609159376,2012.0207626172214,2012.1085297609384,2012.199260377411,2012.2929521801973,2012.3896025723989,2012.489208679727,2012.5917673953145,2012.6972753904301,2012.8057290882523,2012.9171246437097,2013.031457950081,2013.148724659368,2013.2689202010285,2013.392039794197,2013.5180784574534,2013.6470310258753,2013.7788921627969,2013.9136563281374,2014.0513177110088,2014.1918701976006,2014.335307421812,2014.4816228377738,2014.6308096961968,2014.782860930229,2014.9377690769945,2015.095526289186,2015.2561243843645,2015.4195548747725,2015.585808969941,2015.7548775683265,2015.9267512391918,2016.1014202073081,2016.2788743761835,2016.459103383727,2016.642096635584,2016.8278432897657,2017.0163322169183,2017.2075519666603,2017.4014907533772,2017.5981364679612,2017.7974767061708,2017.9994987961595,2018.2041898332902,2018.411536722235,2018.6215261951215,2018.834144800855,2019.0493788854978,2019.267214560461,2019.4876376552622,2019.7106336706713,2019.9361877436054,2020.1642846258014,2020.3949086697748,2020.6280438171964,2020.8636735973946,2021.1017811359861,2021.3423491582141,2021.5853599764487,2021.8307954719908,2022.0786370918718,2022.3288658610556,2022.58146238732,2022.8364068429996,2023.093678935756,2023.3532578939414,2023.615122469796,2023.8792509503417,2024.1456211816464,2024.4142105971334,2024.6849962142285,2024.957954599755,2025.2330618462665,2025.5102935800126,2025.789624988364,2026.071030853717,2026.354485584947,2026.6399632358693,2026.9274375115117,2027.216881767886,2027.5082690003835,2027.8015718232336,2028.0967624570646,2028.3938127334907,2028.6926941021215,2028.9933776156518,2029.2958338962744,2029.6000331142557,2029.905944993274,2030.2135388303543,2030.522783516602,2030.8336475530577,2031.1460990519363,2031.4601057110767,2031.7756347810805,2032.0926530697643,2032.4111269823063,2032.7310225496165,2033.0523054262699,2033.3749408738238,2033.6988937408819,2034.0241284443655,2034.3506089657874,2034.6782988791638,2035.0071613939292,2035.3371593706609,2035.6682553051496,2036.0004113112473,2036.333589113442,2036.6677500520057,2037.002855118157,2037.3388650099093,2037.675740167627,2038.0134407767125,2038.351926757711,2038.6911577576273,2039.0310931440777,2039.3716919961898,2039.7129130808944,2040.05471481704,2040.3970552439657,2040.7398920018388,2041.0831823306482,2041.4268831032766,2041.7709508747982,2042.1153418997212,2042.460012112309,2042.8049171077105,2043.150012140129,2043.495252132755,2043.840591699868,2044.1859851750244,2044.5313866319425,2044.8767499017333,2045.2220286031165,2045.567176196978,2045.9121460510719,2046.2568914669916,2046.6013656365474,2046.9455215721803,2047.289312094989,2047.6326898828054,2047.9756075207042,2048.318017551518,2048.6598725308168,2049.0011250425355,2049.3417276707914,2049.6816329810326,2050.020793542578,2050.359161966169,2050.6966909066377,2051.0333330294707,2051.3690409854908,2051.703767413542,2052.0374649638716,2052.370086341395,2052.70158435749,2053.031911957456,2053.36102220903,2053.6888682763047,2054.0154034111024,2054.3405809634237,2054.664354402858,2054.9866773680005,2055.3075037353487,2055.6267876577817,2055.9444835624777,2056.260546139917,2056.5749303365446,2056.8875913519073,2057.198484649596,2057.5075659787476,2057.814791391501,2058.1201172580318,2058.423500285249,2058.724897532663,2059.0242664209663,2059.321564745089,2059.616750714043,2059.9097829993025,2060.200620731262,2060.489223444188,2060.7755510366,2061.0595637766983,2061.3412223289074,2061.6204877763744,2061.8973216333407,2062.1716858530663,2062.4435428406387,2062.7128554629576,2062.979587029118,2063.243701245659,2063.5051621888647,2063.763934314816,2064.0199824938027,2064.273272055704,2064.5237688345824,2064.771439195029,2065.01625003906,2065.2581688089726,2065.4971634954904,2065.7332026487734,2065.966255379704,2066.196291339288,2066.4232806875243,2066.647194078929,2066.8680026679576,2067.0856781176963,2067.3001926085713,2067.511518849919,2067.7196300899527,2067.924500121288,2068.1261032791867,2068.324414426433,2068.5194089390407,2068.711062726064,2068.8993522782353,2069.0842547032344,2069.265747736638,2069.443809740718,2069.618419687038,2069.7895571268955,2069.9572021776103,2070.1213355441364,2070.2819385621942,2070.4389932361555,2070.5924822619363,2070.7423890320642,2070.8886976164245,2071.0313927304524,2071.1704597163334,2071.305884541671,2071.437653799799,2071.565754701603,2071.690175062085,2071.8109032897964,2071.9279283815677,2072.0412399176666,2072.150828050897,2072.2566834940963,2072.358797521047,2072.4571619751227,2072.5517692588855,2072.6426123046444,2072.729684557206,2072.8129799858607,2072.8924931077568,2072.9682189938494,2073.0401532558085,2073.108292028486,2073.172631943891,2073.2331701043727,2073.2899040903217,2073.342832000344,2073.3919524719927,2073.437264650182,2073.4787681329112,2073.5164629498713,2073.5503495792163,2073.5804289659827,2073.6067025295756,2073.6291721700663,2073.6478402777593,2073.6627097435935,2073.6737839647017,2073.681066842692,2073.68456277546,,,,,,,,,,,,,,,,,,,,,,,,,,,,,,,,,,,,,,,,,,,,,,,,,,,,,,,,,,,,,,,,,,,,,,,,,,,,,,,,,,,,,,,,,,,,,,,,,,,,,,,,,,,,,,,,,,,,,,,,,,,,,,,,,,,,,,,,,,,,,,,,,,,,,,,,,,,,,,,,,,,,,,,,,,,,,,,,,,,,,,,,,,,,,,,,,,,,,,,,,,,,,,,,,,,,,,,,,,,,,,,,,,,,,,,,,,,,,,,,,,,,,,,,,,,,,,,,,,,,,,,,,,,,,,,,,,,,,,,,,,,,,,,,,,,,,,,,,,,,,,,,,,,,,,,,,,,,,,,,,,,,,,,,,,,,,,,,,,,,,,,,,,,,,,,,,,,,,,,,,,,,,,,,,,,,,,,,,,,,,,,,,,,,,,,,,,,,,,,,,,,,,,,,,,,,,,,,,,,,,,,,,,,,,,,,,,,,,,,,,,,,,,,,,,,,,,,,,,,,,,,,,,,,,,,,,,,,,,,,,,,,,,,,,,,,,,,,,,,,,,,,,,,,,,,,,,,,,,,,,,,,,,,,,,,,,,,,,,,,,,,,,,,,,,,,,,,,,,,,,,,,,,,,,,,,,,,,,,,,,,,,,,,,,,,,,,,,,,,,,,,,,,,,,,,,,,,,,,,,,,,,,,,,,,,,,,,,,,,,,,,,,,,,,,,,,,,,,,,,,,,,,,,,,,,,,,,,,,,,,,,,,,,,,,,,,,,,,,,,,,,,,,,,,,,,,,,,,,,,,,,,,,,,,,,,,,,,,,,,,,,,,,,,,,,,,,,,,,,,,,,,,,,,,,,,,,,,,,,,,,,,,,,,,,,,,,,,,,,,,,,,,,,,,,,,,,,,,,,,,,,,,,,,,,,,,,,,,,,,,,,,,,,,,,,,,,,,,,,,,,,,,,,,,,,,,,,,,,,,,,,,,,,,,,,,,,,,,,,,,,,,,,,,,,,,,,,,,,,,,,,,,,,,,,,,,,,,,,,,,,,,,,,,,,,,,,,,,,,,,,,,,,,,,,,,,,,,,,,,,,,,,,,,,,,,,,,,,,,,,,,,,,,,,,,,,,,,,,,,,,,,,,,,,,,,,,,,,,,,,,,,,,,,,,,,,,,,,,,,,,,,,,,,,,,,,,,,,,,,,,,,,,,,,,,,,,,,,,,,,,,,,,,,,,,,,,,,,,,,,,,,,,,,,,,,,,,,,,,,,,,,,,,,,,,,,,,,,,,,,,,,,,,,,,,,,,,,,,,,,,,,,,,,,,,,,,,,,,,,,,,,,,,,,,,,,,,,,,,,,,,,,,,,,,,,,,,,,,,,,,,,,,,,,,,,,,,,,,,,,,,,,,,,,,,,,,,,,,,,,,,,,,,,,,,,,,,,,,,,,,,,,,,,,,,,,,,,,,,,,,,,,,,,,,,,,,,,,,,,,,,,,,,,,,,,,,,,,,,,,,,,,,,,,,,,,,,,,,,,,,,,,,,,,,,,,,,,,,,,,,,,,,,,,,,,,,,,,,,,,,,,,,,,,,,,,,,,,,,,,,,,,,
2048.8470532325487,2048.8452201163345,2048.841249615084,2048.83514753702,2048.8269197672707,2048.816572249247,2048.8041109818555,2048.789542062977,2048.7728717577083,2048.7541065357814,2048.733253074105,2048.7103182682476,2048.685309261785,2048.6582334582113,2048.6290984890547,2048.5979121507585,2048.5646823383345,2048.529416992417,2048.4921240921744,2048.4528117358723,2048.411488255929,2048.3681622402682,2048.3228424546937,2048.2755377888016,2048.226257288327,2048.1750102252327,2048.121806133733,2048.066654803324,2048.0095662665503,2047.950550797741,2047.889618909728,2047.8267813315103,2047.7620489725407,2047.6954328955444,2047.6269442978717,2047.5565945082783,2047.4843950376785,2047.410357671293,2047.334494527135,2047.2568180512149,2047.1773409790862,2047.0960762860402,2047.0130371385305,2046.9282368610272,2046.8416889114008,2046.7534068518553,2046.66340432028,2046.5716950093185,2046.4782926568107,2046.3832110484163,2046.2864640251184,2046.1880654870865,2046.0880293930868,2045.9863697623389,2045.8831006861183,2045.778236345457,2045.6717910231735,2045.5637791073937,2045.4542150873729,2045.3431135347232,2045.2304890781586,2045.116356397725,2045.000730240136,2044.883625428847,2044.765056853444,2044.645039440382,2044.5235881066917,2044.400717708421,2044.2764430211384,2044.1507787813014,2044.023739759686,2043.8953408092648,2043.7655968757695,2043.634522986352,2043.5021342078273,2043.3684455939701,2043.2334721831287,2043.097229046966,2042.959731316491,2042.820994137502,2042.681032601698,2042.539861744332,2042.3974966092233,2042.2539522979528,2042.1092439691652,2041.9633868070432,2041.8163959654469,2041.6682865019181,2041.5190733404972,2041.3687712783649,2041.217395012776,2041.0649591647555,2040.9114782938748,2040.7569669118186,2040.6014395093475,2040.4449105938138,2040.2873947145142,2040.128906469792,2039.9694605011623,2039.809071466752,2039.6477539960838,2039.485522644055,2039.3223918558745,2039.1583759458033,2038.993489081985,2038.8277452866973,2038.661158490978,2038.4937426302317,2038.3255117041392,2038.1564797696303,2037.986660902621,2037.816069163409,2037.6447185746495,2037.4726231119137,2037.299796705208,2037.1262532384676,2036.952006527958,2036.7770702852654,2036.6014580989527,2036.4251834551694,2036.248259780175,2036.070700477185,2035.892518948617,2035.7137285944027,2035.5343427652715,2035.3543746998068,2035.1738375207435,2034.9927442917178,2034.8111080630679,2034.6289418811234,2034.4462587731568,2034.263071699879,2034.0793934876551,2033.8952367919621,2033.7106141180545,2033.5255378659774,2033.340020352862,2033.1540738072297,2032.9677103624874,2032.7809420638152,2032.593780878707,2032.406238694938,2032.2183273067672,2032.030058398303,2031.8414435159193,2031.65249404919,2031.4632212807999,2031.2736364932568,2031.0837510273248,2030.8935762321353,2030.703123375946,2030.5124036343925,2030.3214281594783,2030.1302081266585,2029.938754706463,2029.7470790040682,2029.5551920329522,2029.3631047295273,2029.1708279689908,2028.9783725641387,2028.7857492641783,2028.5929687786986,2028.4000418211135,2028.2069791443996,2028.013791570749,2027.8204900175695,2027.6270854922486,2027.4335890572986,2027.2400118080816,2027.046364883397,2026.8526594772857,2026.6589068013393,2026.4651180072499,2026.2713041304546,2026.0774760678635,2025.8836445673521,2025.6898202306415,2025.496013529163,2025.3022348187044,2025.1084943516225,2024.914802295141,2024.7211687601964,2024.5276038339352,2024.334117608154,2024.140720216258,2023.9474218795515,2023.7542329344597,2023.5611638341873,2023.368225140643,2023.1754275066232,2022.9827816360873,2022.7902982107594,2022.5979878017142,2022.4058608235653,2022.2139275604611,2022.0221982294065,2021.8306830350627,2021.6393922026375,2021.4483359811572,2021.257524598051,2021.0669681841175,2020.8766767212085,2020.686660026021,2020.4969277647203,2020.3074895199,2020.1183548944575,2019.929533590722,2019.741035445356,2019.5528704212488,2019.3650485288163,2019.1775797136202,2018.9904738170185,2018.803740619981,2018.6173898832521,2018.431431346129,2018.2458747008952,2018.0607295518312,2017.8760053750389,2017.6917115131496,2017.5078572033024,2017.3244516022755,2017.14150379823,2016.9590228236646,2016.7770176793238,2016.5954973633766,2016.4144708794954,2016.233947198679,2016.0539352068754,2015.87444371102,2015.6954815022802,2015.5170574026588,2015.3391802653455,2015.1618589559941,2014.9851023392725,2014.8089192743323,2014.6333186143352,2014.4583092071894,2014.2838998853301,2014.1100994214164,2013.936916461302,2013.764359486622,2013.5924368321453,2013.4211567307113,2013.2505273516715,2013.0805568235046,2012.9112532406036,2012.7426246505856,2012.574679045653,2012.4074244058825,2012.2408687838918,2012.0750203570458,2011.9098874139318,2011.745478319327,2011.5818015168945,2011.418865569198,2011.256679178239,2011.0952511487826,2010.934590324497,2010.7747055565437,2010.6156057127344,2010.457299690741,2010.2997964191277,2010.1431048502652,2009.9872339451238,2009.8321926540048,2009.6779899102496,2009.524634650721,2009.3721358415519,2009.2205024645348,2009.0697434678045,2008.9198677445079,2008.7708841844956,2008.6228017527867,2008.475629500273,2008.329376504229,2008.1840518181468,2008.039664456864,2007.8962234060261,2007.753737673332,2007.6122163689847,2007.4716687488115,2007.3321041831302,2007.193532090314,2007.0559618955026,2006.91940302501,2006.7838649080297,2006.649356968595,2006.5158886082017,2006.383469182339,2006.252107977012,2006.1218142112252,2005.9925970990969,2005.864465934283,2005.7374301005516,2005.6114990060787,2005.4866820323412,2005.3629885341231,2005.240427855337,2005.119009324958,2004.9987422342886,2004.879635827198,2004.7616993256513,2004.6449419755168,2004.5293730814112,2004.4150020220638,2004.301838245386,2004.189891228237,2004.0791704154901,2003.9696851850563,2003.8614448477917,2003.754458652671,2003.648735780999,2003.5442853337158,2003.4411163191012,2003.3392376441202,2003.2386581240191,2003.1393865369473,2003.04143170494,2002.944802540003,2002.849508043937,2002.7555572911142,2002.6629593942048,2002.5717234496099,2002.4818584796394,2002.3933733860433,2002.3062769363928,2002.2205778052273,2002.1362846399397,2002.0534060872972,2001.9719507741095,2001.891927290727,2001.8133442025228,2001.7362100723215,2001.6605334674002,2001.5863229494405,2001.5135870648778,2001.4423343413248,2001.3725732876383,2001.3043124008739,2001.237560178503,2001.1723251298115,2001.1086157897207,2001.046440724891,2000.9858085000558,2000.9267276131052,2000.8692064577479,2000.8132533433695,2000.7588765315138,2000.706084226509,2000.6548845226719,2000.6052853632689,2000.557294527459,2000.5109196261526,2000.4661681007012,2000.42304722482,2000.381564107314,2000.3417256960079,2000.3035387918105,2000.267010087922,2000.2321462244468,2000.198953820276,2000.1674394660117,2000.1376096998392,2000.1094709915028,2000.0830297384427,2000.058292259892,2000.0352647727043,2000.0139533545967,1999.9943639183314,1999.9765022033353,1999.9603737717696,1999.9459839985032,1999.9333380679711,1999.9224410099712,1999.9132977654713,1999.9059132288749,1999.900292246456,1999.89643958598,1999.8943598799406,1999.894057556612,1999.8955368039558,1999.8988015895009,1999.9038557147005,1999.9107028782028,1999.919346732211,1999.929790918548,1999.9420390913203,1999.9560949253703,1999.971962077247,1999.9896441084368,2000.0091444304876,2000.030466286638,2000.053612744388,2000.0785866904912,2000.105390829588,2000.1340276949977,2000.1644996923608,2000.1968091570652,2000.2309583654078,2000.2669494966538,2000.3047846088778,2000.3444656646957,2000.3859945870083,2000.4293733122963,2000.4746038280832,2000.5216881864478,2000.5706284858786,2000.6214268255292,2000.6740852367402,2000.7286056088694,2000.7849896625794,2000.8432390143973,2000.9033552725027,2000.9653400395955,2001.0291948220306,2001.0949209596347,2001.1625196200164,2001.2319918192366,2001.3033384408443,2001.3765602601738,2001.4516579974363,2001.52863238946,2001.6074842131416,2001.6882142042082,2001.7708229280954,2001.8553107274913,2001.9416777595322,2002.0299240394766,2002.1200494648926,2002.2120538296917,2002.3059368089368,2002.401697918081,2002.4993364876075,2002.5988516729585,2002.7002424786488,2002.8035077673578,2002.908646251562,2003.0156564888082,2003.1245368952298,2003.2352857663561,2003.347901281274,2003.4623814889253,2003.5787242996685,2003.6969274963003,2003.8169887507468,2003.9389056200491,2004.0626755224598,2004.1882957187997,2004.3157633071917,2004.4450752157534,2004.5762281758045,2004.7092186820792,2004.8440429695593,2004.9806970207276,2005.1191765809185,2005.2594771493186,2005.4015939476385,2005.5455219054077,2005.6912556890754,2005.8387897469217,2005.9881183129796,2006.1392353687525,2006.2921346138444,2006.4468094670074,2006.6032530866526,2006.761458407171,2006.9214181817354,2007.0831250104845,2007.246571352874,2007.4117495294654,2007.5786516997694,2007.7472698214128,2007.9175956376957,2008.0896207345133,2008.2633366333762,2008.4387348422254,2008.6158068510579,2008.794544107258,2008.9749379690065,2009.1569796375857,2009.3406601010288,2009.5259701029177,2009.7129001411897,2009.90144051562,2010.0915814049113,2010.2833129190242,2010.4766251133597,2010.6715079725034,2010.8679513428388,2011.0659448322895,2011.2654777457515,2011.466539072044,2011.6691174939724,2011.8732014202926,2012.078779033487,2012.2858383225196,2012.4943670920502,2012.7043529692044,2012.915783428592,2013.1286458343548,2013.3429274826103,2013.55861563334,2013.775697517112,2013.9941602991946,2014.2139910079602,2014.435176447455,2014.6577031156412,2014.8815571599562,2015.1067243803295,2015.333190266274,2015.5609400684518,2015.789958886461,2016.0202317225344,2016.2517434877623,2016.4844789851795,2016.718422879052,2016.9535596576634,2017.1898736066412,2017.4273487920145,2017.6659690554334,2017.9057180483314,2018.1465792961005,2018.3885362306166,2018.6315721545948,2018.8756701718592,2019.1208131403257,2019.366983659058,2019.6141640618066,2019.8623363959382,2020.1114824070355,2020.361583579481,2020.612621222474,2020.864576526424,2021.1174305621323,2021.3711642576543,2021.625758383675,2021.8811935506446,2022.1374502055035,2022.394508617446,2022.6523488628704,2022.9109508350684,2023.1702942758218,2023.430358790356,2023.6911238209095,2023.9525686012284,2024.2146721337767,2024.4774131949355,2024.7407703385777,2025.004721878944,2025.2692458718943,2025.53432013429,2025.7999222962387,2026.066029846029,2026.3326201689788,2026.599670583844,2026.8671583394666,2027.1350605720631,2027.4033542710313,2027.6720162690972,2027.9410232543673,2028.2103518237627,2028.4799785640373,2028.74988009263,2029.0200330194004,2029.2904138694141,2029.5609990308803,2029.83176474082,2030.1026870788469,2030.3737419475578,2030.644905046838,2030.9161518656094,2031.1874576926477,2031.4587976298342,2031.7301466078384,2032.0014794119465,2032.2727707176257,2032.5439951264939,2032.8151272002613,2033.0861415165812,2033.3570127455932,2033.6277157017175,2033.8982253573145,2034.1685168405204,2034.4385654257844,2034.7083465130452,2034.977835590275,2035.2470081883173,2035.515839844246,2035.7843060635103,2036.052382294657,2036.3200439795214,2036.587266665896,2036.8540260901827,2037.1202982089258,2037.3860592116869,2037.6512855128253,2037.9159537238065,2038.1800406328182,2038.443523201429,2038.706378559223,2038.9685839712556,2039.2301167860387,2039.4909544086847,2039.7510743263908,2040.010454163141,2040.26907172508,2040.5269050247946,2040.7839322918069,2041.0401319769867,2041.295482756562,2041.5499635369486,2041.803553458772,2042.0562318911584,2042.3079784016886,2042.5587727231127,2042.8085947711897,2043.057424708785,2043.3052430002372,2043.5520304511256,2043.7977682342514,2044.0424378523307,2044.2860210463327,2044.5284997265428,2044.7698559450157,2045.0100718866984,2045.2491298873388,2045.4870124838558,2045.723702484195,2045.9591830363768,2046.193437661853,2046.4264502353144,2046.6582049373246,2046.8886862154827,2047.1178787634442,2047.3457675173966,2047.5723376768847,2047.7975747394416,2048.021464521837,2048.243993162266,2048.46514712052,2048.684913189118,2048.9032785162144,2049.12023063663,2049.3357575028904,2049.5498474907163,2049.762489352183,2049.973672151852,2050.1833852670134,2050.3916184516343,2050.5983618682667,2050.8036060250274,2051.007341680536,2051.2095598409583,2051.4102518495665,2051.60940945115,2051.8070247797586,2052.0030902969593,2052.1975986948046,2052.3905427874515,2052.581915454316,2052.7717096660035,2052.9599185443303,2053.1465353870562,2053.33155365084,2053.5149669390735,2053.6967690238075,2053.876953876206,2054.0555156540045,2054.2324486488183,2054.4077472553636,2054.581405997899,2054.7534195838575,2054.923782935177,2055.092491189212,2055.2595397020914,2055.4249240837303,2055.588640253547,2055.75068447996,2055.9110533935254,2056.069743982639,2056.2267535673413,2056.3820797528474,2056.5357203765975,2056.6876734618068,2056.8379371905035,2056.986509896052,2057.133390073131,2057.278576420585,2057.4220679061978,2057.5638638055093,2057.70396369561,2057.842367430689,2057.979075128142,2058.114087168484,2058.2474042017643,2058.3790271637317,2058.5089572968755,2058.637196156063,2058.763745597149,2058.88860777249,2059.0117851520336,2059.1332805533393,2059.2530971424035,2059.3712384048754,2059.487708121344,2059.602510356021,2059.715649440568,2059.8271299360267,2059.9369565821803,2060.045134266808,2060.151668026594,2060.256563062249,2060.359824752424,2060.4614586627667,2060.561470562696,2060.659866476268,2060.7566527541508,2060.8518361119327,2060.9454236250317,2061.0374227017055,2061.1278410195596,2061.2166864328524,2061.303966903748,2061.3896904745584,2061.473865272449,2061.5564995604095,2061.637601812981,2061.7171807530435,2061.7952453403386,2061.87180475675,2061.946868409854,2062.020445949869,2062.092547298381,2062.1631826815365,2062.2323626437787,2062.3000980250713,2062.3663999194723,2062.431279648732,2062.4947487573972,2062.5568190103604,2062.6175023782503,2062.6768110074113,2062.734757174069,2062.7913532340417,2062.8466115955885,2062.900544727561,2062.9531651947473,2063.004485719192,2063.054519252069,2063.103279006618,2063.150778420494,2063.1970310816123,2063.2420506759054,2063.285850969986,2063.3284458035505,2063.3698490720553,2063.410074723599,2063.4491368284375,2063.4870497036827,2063.5238279905384,2063.559486641478,2063.594040851847,2063.6275059573895,2063.659897323267,2063.6912302777073,2063.72152010287,2063.7507820577666,2063.779031429998,2063.8062836033187,2063.8325540874725,2063.857858473796,2063.882212353499,2063.905631267191,2063.9281306982325,2063.949726087188,2063.9704328718467,2063.9902665479367,2064.009242717679,2064.027377114,2064.0446855975674,2064.0611841088007,2064.0768885931057,2064.0918149537047,2064.1059790438267,2064.1193966641767,2064.1320835409338,2064.1440553065954,2064.1553275372216,2064.1659158367456,2064.1758358880197,2064.1851034320553,2064.193734208319,2064.2017438946273,2064.2091480616486,2064.2159621562196,2064.222201526044,2064.2278814703627,2064.233017288599,2064.237624314807,2064.241717918043,2064.2453134370185,2064.2484260904093,2064.2510709670937,2064.2532630987575,2064.2550175113997,2064.256349206252,2064.257273111486,2064.2578040594854,2064.25795679536,,,,,,,,,,,,,,,,,,,,,,,,,,,,,,,,,,,,,,,,,,,,,,,,,,,,,,,,,,,,,,,,,,,,,,,,,,,,,,,,,,,,,,,,,,,,,,,,,,,,,,,,,,,,,,,,,,,,,,,,,,,,,,,,,,,,,,,,,,,,,,,,,,,,,,,,,,,,,,,,,,,,,,,,,,,,,,,,,,,,,,,,,,,,,,,,,,,,,,,,,,,,,,,,,,,,,,,,,,,,,,,,,,,,,,,,,,,,,,,,,,,,,,,,,,,,,,,,,,,,,,,,,,,,,,,,,,,,,,,,,,,,,,,,,,,,,,,,,,,,,,,,,,,,,,,,,,,,,,,,,,,,,,,,,,,,,,,,,,,,,,,,,,,,,,,,,,,,,,,,,,,,,,,,,,,,,,,,,,,,,,,,,,,,,,,,,,,,,,,,,,,,,,,,,,,,,,,,,,,,,,,,,,,,,,,,,,,,,,,,,,,,,,,,,,,,,,,,,,,,,,,,,,,,,,,,,,,,,,,,,,,,,,,,,,,,,,,,,,,,,,,,,,,,,,,,,,,,,,,,,,,,,,,,,,,,,,,,,,,,,,,,,,,,,,,,,,,,,,,,,,,,,,,,,,,,,,,,,,,,,,,,,,,,,,,,,,,,,,,,,,,,,,,,,,,,,,,,,,,,,,,,,,,,,,,,,,,,,,,,,,,,,,,,,,,,,,,,,,,,,,,,,,,,,,,,,,,,,,,,,,,,,,,,,,,,,,,,,,,,,,,,,,,,,,,,,,,,,,,,,,,,,,,,,,,,,,,,,,,,,,,,,,,,,,,,,,,,,,,,,,,,,,,,,,,,,,,,,,,,,,,,,,,,,,,,,,,,,,,,,,,,,,,,,,,,,,,,,,,,,,,,,,,,,,,,,,,,,,,,,,,,,,,,,,,,,,,,,,,,,,,,,,,,,,,,,,,,,,,,,,,,,,,,,,,,,,,,,,,,,,,,,,,,,,,,,,,,,,,,,,,,,,,,,,,,,,,,,,,,,,,,,,,,,,,,,,,,,,,,,,,,,,,,,,,,,,,,,,,,,,,,,,,,,,,,,,,,,,,,,,,,,,,,,,,,,,,,,,,,,,,,,,,,,,,,,,,,,,,,,,,,,,,,,,,,,,,,,,,,,,,,,,,,,,,,,,,,,,,,,,,,,,,,,,,,,,,,,,,,,,,,,,,,,,,,,,,,,,,,,,,,,,,,,,,,,,,,,,,,,,,,,,,,,,,,,,,,,,,,,,,,,,,,,,,,,,,,,,,,,,,,,,,,,,,,,,,,,,,,,,,,,,,,,,,,,,,,,,,,,,,,,,,,,,,,,,,,,,,,,,,,,,,,,,,,,,,,,,,,,,,,,,,,,,,,,,,,,,,,,,,,,,,,,,,
2074.852631223864,2074.8521956038066,2074.8483581352652,2074.841128600078,2074.83051696527,2074.8165333891893,2074.7991882337456,2074.778492079106,2074.754455725433,2074.7270901812512,2074.696406656705,2074.6624165726653,2074.62513158405,2074.584563615752,2074.5407249022314,2074.493628009285,2074.443285829054,2074.3897115572036,2074.3329186575506,2074.2729208230535,2074.2097319538675,2074.143366159764,2074.07383776703,2074.0011613042952,2073.925351470931,2073.846423110746,2073.7643911905666,2073.6792707751947,2073.5910770068376,2073.499825094304,2073.4055303135756,2073.308208026656,2073.207873712205,2073.1045429888923,2072.9982316257824,2072.8889555547753,2072.7767309061855,2072.6615740431257,2072.543501526532,2072.422530019759,2072.298676220373,2072.171956846739,2072.04238865424,2071.909988481541,2071.7747733155325,2071.636760337628,2071.4959669481746,2071.3524107697835,2071.206109593066,2071.057081278571,2070.905343704994,2070.7509148147697,2070.5938126925507,2070.4340555678314,2070.2716617413175,2070.1066495397117,2069.939037356932,2069.768843719693,2069.596087270741,2069.4207866742113,2069.242960543721,2069.06262742525,2068.8798058015404,2068.694514106251,2068.506770744617,2068.3165941096645,2068.124002594789,2067.9290146039166,2067.731648547884,2067.5319228282597,2067.3298558252363,2067.1254658940584,2066.9187713691736,2066.709790585034,2066.498541910708,2066.2850437804436,2066.06931471249,2065.851373302366,2065.6312381613775,2065.4089278239053,2065.184460696902,2064.957855064582,2064.729129104485,2064.4983008986806,2064.2653884482393,2064.030409694205,2063.793382540201,2063.554324862478,2063.313254496846,2063.070189221969,2062.825146777158,2062.578144910607,2062.329201416279,2062.078334148899,2061.8255610267875,2061.5709000140128,2061.314369086737,2061.055986200787,2060.7957692482883,2060.533736017144,2060.2699042186932,2060.0042915770455,2059.7369158839397,2059.4677949696356,2059.196946623913,2058.9243885101832,2058.6501380946256,2058.3742126236134,2058.096629180265,2057.8174047811735,2057.5365564333833,2057.2541011378275,2056.970055876138,2056.6844375889477,2056.397263152176,2056.1085493821265,2055.8183130685925,2055.526570993364,2055.233339907366,2054.9386364867023,2054.6424773053513,2054.3448788318024,2054.0458574293575,2053.745429345484,2053.443610693876,2053.1404174418008,2052.835865406376,2052.529970252075,2052.22274748094,2051.914212430102,2051.6043803127254,2051.2932662926337,2050.9808855398733,2050.6672532582934,2050.3523846993407,2050.036295146243,2049.718999873047,2049.4005141073158,2049.0808529904016,2048.7600315340724,2048.4380646112263,2048.1149669835354,2047.7907533319344,2047.4654382871188,2047.1390364714082,2046.811562546299,2046.4830312543424,2046.1534574395275,2045.822856037242,2045.4912420362464,2045.1586304094146,2044.8250360310926,2044.4904736366577,2044.1549578551112,2043.8185032700799,2043.4811244382222,2043.1428358609835,2042.8036519587922,2042.4635870647355,2042.1226554267607,2041.7808712179976,2041.4382485531714,2041.0948014956903,2040.750544042828,2040.4054901003665,2040.0596534718466,2039.7130478656777,2039.365686903061,2039.017584118618,2038.6687529699473,2038.3192068853239,2037.9689593381818,2037.618023894416,2037.2664142122223,2036.914144018815,2036.5612270834977,2036.2076771943912,2035.8535081497694,2035.498733771308,2035.143367930322,2034.7874245727871,2034.43091773747,2034.073861564325,2033.7162702907215,2033.3581582452423,2032.9995398564972,2032.6404296753258,2032.2808423876747,2031.9207928043518,2031.5602958329316,2031.199366439521,2030.8380196105288,2030.476270331882,2030.1141335901546,2029.751624373293,2029.3887576421332,2029.0255482804155,2028.6620110740157,2028.298160754685,2027.934012075843,2027.5695798571357,2027.2048789872038,2026.8399244187444,2026.4747311720982,2026.109314338833,2025.743689072756,2025.3778705711882,2025.0118740619203,2024.6457147986912,2024.279408054637,2023.9129691051942,2023.5464132053232,2023.17975558783,2022.8130115103736,2022.4461963316865,2022.0793255658853,2021.7124149018937,2021.3454801932453,2020.978537397986,2020.6116024978849,2020.244691484587,2019.877820416768,2019.5110054671416,2019.1442629268724,2018.777609182396,2018.4110606642448,2018.0446337812693,2017.678344873114,2017.312210177299,2016.9462458007647,2016.5804677206238,2016.214891814532,2015.849533884971,2015.4844096640554,2015.1195348175277,2014.7549249698477,2014.3905957446989,2014.026562796971,2013.6628418362232,2013.2994486424361,2012.936399048897,2012.5737088970914,2012.2113940070071,2011.8494701790844,2011.4879532034645,2011.1268588493556,2010.7662028377626,2010.4060008361234,2010.0462685089292,2009.6870215853817,2009.3282758552386,2008.9700470944651,2008.6123510180646,2008.2552033095876,2007.898619686339,2007.5426159422684,2007.187207958398,2006.8324116974256,2006.4782431812835,2006.1247184459721,2005.7718534757,2005.419664133367,2005.068166136078,2004.7173751146345,2004.367306709536,2004.0179766073372,2003.6694005088402,2003.3215941037738,2002.9745730905013,2002.6283531997817,2002.2829501532055,2001.9383795672588,2001.5946568914628,2001.2517974158854,2000.9098163070462,2000.5687286312389,2000.2285493559398,1999.8892933341717,1999.5509752819619,1999.2136097752705,1998.877211291947,1998.5417942759948,1998.2073731689645,1997.873962401179,1997.5415763902504,1997.2102295834127,1996.8799365124198,1996.5507117875834,1996.2225700329736,1995.895525838248,1995.5695937542903,1995.24478830223,1994.9211239706906,1994.5986152024789,1994.2772763861396,1993.9571218584533,1993.6381659268084,1993.3204229361934,1993.0039073645814,1992.6886338826043,1992.3746173547947,1992.0618727990332,1991.7504152993301,1991.4402598942563,1991.1314215039072,1990.8239149055444,1990.5177547372248,1990.212955546858,1989.9095318749314,1989.6074983007109,1989.3068694141882,1989.0076597494754,1988.70988373158,1988.4135556503525,1988.1186896697225,1987.825299901433,1987.5334005185266,1987.2430058302766,1986.9541303003118,1986.6667885322724,1986.3809952128572,1986.096765019968,1985.8141125418006,1985.533052227569,1985.2535983662153,1984.9757650870165,1984.6995663792497,1984.425016141059,1984.1521282457556,1983.8809165862015,1983.6113950887504,1983.3435777093298,1983.0774784043554,1982.81311108419,1982.5504895933684,1982.2896277480156,1982.0305393943515,1981.7732384184985,1981.517738705564,1981.264054093841,1981.0121983204797,1980.7621849606533,1980.5140274145874,1980.2677389461032,1980.0233327215528,1979.7808218390085,1979.5402193623042,1979.3015383550683,1979.0647919066264,1978.8299931412612,1978.5971552018968,1978.3662912260631,1978.1374143506525,1977.9105377446592,1977.6856746329786,1977.4628382958515,1977.2420420536896,1977.0232992425565,1976.8066231867954,1976.5920271809737,1976.3795244803366,1976.1691282928678,1975.9608517758008,1975.754708037796,1975.5507101398869,1975.3488710891093,1975.149203825626,1974.9517212078085,1974.7564359993332,1974.5633608659998,1974.3725083895763,1974.1838910933955,1973.9975214679364,1973.813411990305,1973.6315751355883,1973.4520233821054,1973.2747692182684,1973.0998251583526,1972.9272037635283,1972.756917640967,1972.5889793881627,1972.4234015137054,1972.2601964172745,1972.0993764341247,1971.9409538600828,1971.784940902283,1971.6313496059497,1971.480191858656,1971.3314794712467,1971.1852242392686,1971.0414379484012,1970.9001323591767,1970.7613191997987,1970.625010169088,1970.4912169345441,1970.3599511096986,1970.2312242083262,1970.1050475803834,1969.9814323459007,1969.860389358476,1969.7419292089176,1969.6260622499665,1969.5127986279006,1969.4021483133076,1969.2941211265706,1969.1887267706365,1969.0859748710718,1968.985874996221,1968.8884366525988,1968.7936692689066,1968.7015821605555,1968.6121844929569,1968.5254853032163,1968.4414935749596,1968.3602182814955,1968.2816683498468,1968.2058525882492,1968.1327796460907,1968.0624580164313,1967.9948960514891,1967.9301019866286,1967.8680839712272,1967.8088500853241,1967.7524083379944,1967.6987666588086,1967.6479328807523,1967.599914727592,1967.5547198434172,1967.512355857053,1967.4728304176524,1967.4361511657587,1967.4023256755445,1967.3713614258402,1967.3432658072502,1967.3180461381755,1967.2957096856885,1967.2762636896332,1967.2597153692623,1967.246071910785,1967.2353404548996,1967.2275280891706,1967.2226418270034,1967.2206885476485,1967.2216749122513,1967.225607307875,1967.2324918304562,1967.242334294109,1967.2551402846352,1967.2709152438485,1967.2896645173657,1967.3113933330014,1967.3361067503383,1967.363809637865,1967.3945066833655,1967.4282024136185,1967.4649012250316,1967.504607421967,1967.5473252327308,1967.5930587991725,1967.6418121723505,1967.6935893386071,1967.7483942533308,1967.806230830884,1967.8671028931267,1967.9310141268477,1967.9979680606496,1968.0679680556068,1968.1410173340437,1968.217119039125,1968.2962762733305,1968.3784920955263,1968.463769489617,1968.5521113055893,1968.6435201875527,1968.7379985435498,1968.8355485968927,1968.936172476837,1969.0398722666325,1969.1466499967846,1969.2565076188223,1969.3694469571353,1969.4854696486223,1969.6045771224822,1969.726770617719,1969.8520511775,1969.9804196106313,1970.1118764664009,1970.2464220459178,1970.3840564312814,1970.5247795074272,1970.6685909709718,1970.8154903317325,1970.96547690936,1971.1185498222417,1971.2747079621859,1971.43394996097,1971.5962741718824,1971.7616786780195,1971.930161312735,1972.1017196715484,1972.2763511122696,1972.454052761187,1972.6348215472321,1972.8186542405847,1973.0055474320257,1973.1954974579044,1973.3885003457763,1973.5845518074902,1973.7836472533527,1973.9857818119522,1974.1909503503698,1974.3991474870675,1974.6103675986692,1974.8246048218564,1975.0418530406366,1975.2621058618265,1975.4853565913284,1975.7115982042997,1975.9408233071902,1976.17302411193,1976.4081924283576,1976.6463196679842,1976.8873968635664,1977.1314146902796,1977.378363449547,1977.6282330191766,1977.8810128314722,1978.1366919243537,1978.3952590314082,1978.6567026386522,1978.921010993402,1979.188172086349,1979.458173597099,1979.7310028222519,1980.0066466525514,1980.2850916043822,1980.5663238488144,1980.8503292175053,1981.137093199251,1981.4266009316516,1981.7188371895115,1982.0137863817447,1982.3114325689505,1982.6117594793511,1982.9147504727798,1983.2203884612397,1983.5286558562234,1983.839534570785,1984.1530060512148,1984.4690513204603,1984.787651021937,1985.1087854361404,1985.432434449771,1985.7585775122684,1986.0871936466917,1986.4182615117065,1986.7517594489477,1987.0876654962885,1987.4259573913553,1987.7666125758383,1988.1096081989765,1988.4549211052024,1988.8025277791733,1989.1524042672559,1989.5045261379444,1989.8588684905433,1990.2154059678937,1990.5741127532615,1990.9349625720797,1991.2979287301914,1991.6629841784509,1992.030101546475,1992.3992531143092,1992.770410752026,1993.1435458718897,1993.5186294044447,1993.8956317871666,1994.2745229567547,1994.6552723543919,1995.0378489703494,1995.4222214161653,1995.8083579671957,1996.1962265515997,1996.5857947092904,1996.9770295407313,1997.3698976577514,1997.7643651692385,1998.1603977349846,1998.557960662524,1998.9570189857054,1999.357537504712,1999.7594807976702,2000.1628132079074,2000.567498812943,2000.9735013812985,2001.3807843272714,2001.789310691665,2002.1990431699796,2002.6099441620977,2003.021975792343,2003.4350998942375,2003.849277999712,2004.2644713587392,2004.6806409723474,2005.0977476029082,2005.5157517584528,2005.934613682256,2006.354293367974,2006.7747505869484,2007.1959449000876,2007.6178356506744,2008.0403819539235,2008.4635426877526,2008.8872764985588,2009.3115418568937,2009.7362971484347,2010.1615007255941,2010.5871108848842,2011.0130858243958,2011.439383660511,2011.865962498977,2012.2927804828537,2012.719795785687,2013.1469665799336,2013.574251008223,2014.0016071639498,2014.428993089718,2014.8563668098648,2015.2836863816447,2015.7109099216677,2016.1379956002852,2016.564901637194,2016.9915863226013,2017.4180080534018,2017.844125356374,2018.2698968919037,2018.695281440669,2019.120237858683,2019.544725020978,2019.9687018156012,2020.392127188735,2020.814960193468,2021.2371600470944,2021.658686188413,2022.0794982636276,2022.4995560436853,2022.9188193635282,2023.3372481185547,2023.7548022963847,2024.1714420390565,2024.5871277194312,2025.0018199786532,2025.4154796954583,2025.8280679258708,2026.2395458729288,2026.6498748933393,2027.0590165183366,2027.4669324964598,2027.8735848598678,2028.2789359866063,2028.6829486425954,2029.0855859858968,2029.4868115064799,2029.8865889274525,2030.2848821342996,2030.6816551491595,2031.0768721400068,2031.470497483395,2031.8624958466867,2032.2528321919876,2032.6414717001703,2033.0283797249278,2033.4135218417773,2033.7968639445414,2034.1783723061412,2034.5580135878724,2034.9357548239461,2035.3115633792647,2035.685406897879,2036.0572532989256,2036.4270708204522,2036.7948280535165,2037.160493945873,2037.5240377898483,2037.8854291972473,2038.2446380673755,2038.6016345668438,2038.956389124801,2039.3088724310223,2039.659055429145,2040.0069093180298,2040.3524055884382,2040.6955160852815,2041.0362130467618,2041.3744691033612,2041.7102572630536,2042.0435509074855,2042.374323799535,2042.7025500774953,2043.0282042078948,2043.3512609225081,2043.6716952081292,2043.9894823511306,2044.3045979731155,2044.6170180337226,2044.926718817627,2045.2336769130377,2045.5378691865617,2045.8392727787775,2046.1378651472946,2046.433624127276,2046.7265279359929,2047.0165551197833,2047.3036845107697,2047.5878952176724,2047.8691666284092,2048.1474784098727,2048.422810504483,2048.6951431243233,2048.964456739208,2049.23073206437,2049.493950065201,2049.754091977433,2050.011139320035,2050.2650738910897,2050.5158777645024,2050.763533314319,2051.008023260159,2051.2493306875185,2051.487439012102,2051.722331919023,2051.9539933352908,2052.182407442081,2052.407558699604,2052.62943189025,2052.848012179201,2053.0632851584314,2053.2752368627353,2053.4838537772534,2053.689122853543,2053.89103151431,2054.089567595277,2054.284719238387,2054.4764748329026,2054.6648230575515,2054.8497529583956,2055.031253955722,2055.20931577793,2055.3839284076084,2055.5550820702383,2055.7227672423905,2055.8869746717105,2056.0476954034207,2056.2049208011617,2056.35864256664,2056.508852761328,2056.655543815203,2056.798708520093,2056.938340032375,2057.074431910994,2057.206978179037,2057.3359733699117,2057.4614125463672,2057.58329129357,2057.701605669603,2057.8163521215065,2057.927527403365,2058.035128516734,2058.1391526945017,2058.2395974541514,2058.3364606802556,2058.4297406481683,2058.519435982824,2058.6055456183726,2058.688068778528,2058.767004978038,2058.842354078951,2058.9141163874697,2058.982292709861,2059.04688432805,2059.1078929366986,2059.165320595723,2059.2191697100193,2059.2694430315228,2059.31614369294,2059.3592752471814,2059.398841647584,2059.4348471737926,2059.4672963718613,2059.4961940223757,2059.521545125635,2059.5433549323,2059.561629011795,2059.576373299226,2059.587594100943,2059.5952980944467,2059.5994923607695,,,,,,,,,,,,,,,,,,,,,,,,,,,,,,,,,,,,,,,,,,,,,,,,,,,,,,,,,,,,,,,,,,,,,,,,,,,,,,,,,,,,,,,,,,,,,,,,,,,,,,,,,,,,,,,,,,,,,,,,,,,,,,,,,,,,,,,,,,,,,,,,,,,,,,,,,,,,,,,,,,,,,,,,,,,,,,,,,,,,,,,,,,,,,,,,,,,,,,,,,,,,,,,,,,,,,,,,,,,,,,,,,,,,,,,,,,,,,,,,,,,,,,,,,,,,,,,,,,,,,,,,,,,,,,,,,,,,,,,,,,,,,,,,,,,,,,,,,,,,,,,,,,,,,,,,,,,,,,,,,,,,,,,,,,,,,,,,,,,,,,,,,,,,,,,,,,,,,,,,,,,,,,,,,,,,,,,,,,,,,,,,,,,,,,,,,,,,,,,,,,,,,,,,,,,,,,,,,,,,,,,,,,,,,,,,,,,,,,,,,,,,,,,,,,,,,,,,,,,,,,,,,,,,,,,,,,,,,,,,,,,,,,,,,,,,,,,,,,,,,,,,,,,,,,,,,,,,,,,,,,,,,,,,,,,,,,,,,,,,,,,,,,,,,,,,,,,,,,,,,,,,,,,,,,,,,,,,,,,,,,,,,,,,,,,,,,,,,,,,,,,,,,,,,,,,,,,,,,,,,,,,,,,,,,,,,,,,,,,,,,,,,,,,,,,,,,,,,,,,,,,,,,,,,,,,,,,,,,,,,,,,,,,,,,,,,,,,,,,,,,,,,,,,,,,,,,,,,,,,,,,,,,,,,,,,,,,,,,,,,,,,,,,,,,,,,,,,,,,,,,,,,,,,,,,,,,,,,,,,,,,,,,,,,,,,,,,,,,,,,,,,,,,,,,,,,,,,,,,,,,,,,,,,,,,,,,,,,,,,,,,,,,,,,,,,,,,,,,,,,,,,,,,,,,,,,,,,,,,,,,,,,,,,,,,,,,,,,,,,,,,,,,,,,,,,,,,,,,,,,,,,,,,,,,,,,,,,,,,,,,,,,,,,,,,,,,,,,,,,,,,,,,,,,,,,,,,,,,,,,,,,,,,,,,,,,,,,,,,,,,,,,,,,,,,,,,,,,,,,,,,,,,,,,,,,,,,,,,,,,,,,,,,,,,,,,,,,,,,,,,,,,,,,,,,,,,,,,,,,,,,,,,,,,,,,,,,,,,,,,,,,,,,,,,,,,,,,,,,,,,,,,,,,,,,,,,,,,,,,,,,,,,,,,,,,,,,,,,,,,,,,,,,,,,,,,,,,,,,,,,,,,,,,,,,,,,,,,,,,,,,,,,,,,,,,,,,,,,,,,,,,,,,,,,,,,,,,,,,,,,,,,,,,,,,,,,,,,,,,,,,,,,,,,,,,,,,,,,,,,,,,,,,,,,,,,,,,,,,,,,,
2096.4347689600636,2096.4346467943933,2096.430322001557,2096.421795357101,2096.4090681137477,2096.3921419803573,2096.371019061965,2096.3457018103927,2096.3161929907124,2096.282495652199,2096.244613125276,2096.202549045265,2096.156307381845,2096.105892483141,2096.0513091271428,2095.9925625317724,2095.9296583211567,2095.8626024846253,2095.791401321131,2095.716061378018,2095.636589448236,2095.5529926268196,2095.465278364958,2095.373454514354,2095.277529358628,2095.1775115749642,2095.0734101357425,2094.9652342527897,2094.8529934202525,2094.7366974948177,2094.6163567142926,2094.49198165008,2094.3635831787496,2094.2311725242253,2094.0947613304315,2093.954361689741,2093.8099861203277,2093.661647534218,2093.5093591980585,2093.353134694729,2093.19298793731,2093.0289332321754,2092.860985306397,2092.6891592378165,2092.513470336851,2092.333934084318,2092.150566141099,2091.9633823720205,2091.772398864899,2091.577631956908,2091.379098271522,2091.176814757104,2090.9707986995577,2090.761067683878,2090.547639525301,2090.33053221711,2090.1097639084924,2089.88535290554,2089.6573177014893,2089.425677025647,2089.190449880571,2088.9516555585888,2088.709313636017,2088.4634439272468,2088.214066420995,2087.961201264051,2087.7048687969723,2087.445089586564,2087.1818844352465,2086.915274382746,2086.645280707799,2086.3719249298865,2086.0952288024646,2085.8152142806603,2085.531903471136,2085.2453185965796,2084.955481984158,2084.6624160661577,2084.3661433891707,2084.0666866232987,2083.7640685527167,2083.458312050434,2083.1494400652464,2082.837475636705,2082.522441930389,2082.204362283748,2081.8832602515586,2081.559159622593,2081.2320843827565,2080.90205864619,2080.569106600597,2080.2332524809813,2079.894520565318,2079.552935193371,2079.2085208005333,2078.8613019492577,2078.511303350767,2078.158549863656,2077.803066445042,2077.444878076989,2077.0840097331097,2076.720486394281,2076.354333072083,2075.985574828605,2075.614236789775,2075.2403441266574,2074.8639220099894,2074.48499559719,2074.1035901009345,2073.7197308865534,2073.333443480997,2072.9447534917526,2072.55368655052,2072.1602683360234,2071.764524623205,2071.3664812857814,2070.9661642521523,2070.563599472283,2070.1588129174625,2069.751830588192,2069.342678505452,2068.931382688189,2068.5179691429885,2068.1024638817576,2067.6848929617327,2067.265282540109,2066.8436589250323,2066.4200485896786,2065.9944781514623,2065.566974333404,2065.1375638804734,2064.7062734629667,2064.273129687408,2063.8381592129485,2063.401388820309,2062.962845344414,2062.522555559166,2062.0805461705554,2061.63684392054,2061.1914756738956,2060.74446844666,2060.295849410237,2059.845645874826,2059.3938852570354,2058.9405950548135,2058.4858028296862,2058.0295361922563,2057.5718228084006,2057.1126904253574,2056.652166888085,2056.190280128855,2055.7270581398134,2055.2625289435196,2054.7967205695836,2054.329661049162,2053.8613784386707,2053.391900844728,2052.9212563931123,2052.4494731502614,2051.976579069529,2051.5026019861325,2051.0275696396952,2050.5515097227653,2050.0744499439443,2049.596418065462,2049.117441898159,2048.637549268077,2048.1567679627647,2047.6751256715118,2047.1926499519532,2046.7093682331947,2046.2253078335527,2045.740495973427,2045.2549597808772,2044.7687263065363,2044.2818225738242,2043.7942756332243,2043.3061125346098,2042.8173602253291,2042.328045493734,2041.838195025907,2041.347835507426,2040.856993655755,2040.3656961759586,2039.8739697326487,2039.3818409925268,2038.889336693709,2038.3964836619016,2037.9033087701876,2037.4098388975967,2036.9161008937654,2036.4221215399443,2035.9279275294846,2035.4335454734778,2034.9390019234384,2034.444323428067,2033.9495366119238,2033.454668220833,2032.9597451234713,2032.4647942898337,2031.9698427319643,2031.4749174280557,2030.9800453094335,2030.4852533144833,2029.990568433651,2029.4960177154953,2029.0016282463662,2028.5074271000628,2028.0134412708526,2027.5196976421948,2027.026223022404,2026.5330442139862,2026.0401880622805,2025.5476814720516,2025.0555513972986,2024.5638247848126,2024.0725284942007,2023.5816892686198,2023.091333764338,2022.6014885725833,2022.1121801939207,2021.6234350032948,2021.135279279172,2020.6477392902898,2020.160841357248,2019.6746118581084,2019.189077202749,2018.7042637857126,2018.2201979301235,2017.7369058685213,2017.2544137967157,2016.7727479653709,2016.29193473669,2015.8120005928179,2015.3329721271946,2014.8548760249519,2014.3777390319426,2013.9015879270098,2013.4264495052043,2012.952350566675,2012.4793178994676,2012.0073782574484,2011.5365583520143,2011.0668848604307,2010.5983844361915,2010.1310837169347,2009.6650093315413,2009.2001879031695,2008.7366460482222,2008.2744103809864,2007.8135075353068,2007.3539641894927,2006.8958070595745,2006.4390628633375,2005.983758296519,2005.5299200382071,2005.0775747744872,2004.6267492354689,2004.17747023717,2003.7297646921515,2003.2836595519832,2002.8391817180518,2002.3963580087561,2001.9552151920068,2001.5157800258337,2001.0780792965463,2000.6421398512027,2000.2079885809774,1999.7756523602927,1999.345157995273,1998.9165321855728,1998.4898014805149,1998.0649922413013,1997.64213061944,1997.2212425526066,1996.8023537823988,1996.3854898903378,1995.9706763444046,1995.5579385451572,1995.1473018564177,1994.7387916225566,1994.3324331699403,1993.9282517641452,1993.5262725342918,1993.1265204277931,1992.729020222297,1992.3337965566802,1991.940873933628,1991.5502766938005,1991.162029007024,1990.776154914585,1990.3926783905792,1990.0116233525307,1989.6330136192528,1989.256872888167,1988.8832247771154,1988.5120928876586,1988.1435008075016,1987.7774720520456,1987.4140300160661,1987.0531979558043,1986.6949989738803,1986.339455992423,1985.9865917217219,1985.6364286438727,1985.2889890195297,1984.944294902756,1984.6023681449017,1984.263230387105,1983.9269030612938,1983.5934074179477,1983.2627645684454,1982.934995509951,1982.610121127154,1982.288162181413,1981.9691392791926,1981.6530728380428,1981.3399831065221,1981.0298902335974,1980.7228143080022,1980.4187753208946,1980.1177930952285,1979.8198872568935,1979.52507725533,1979.2333823869672,1978.9448218040325,1978.6594145245608,1978.3771794586091,1978.0981354445953,1977.82230126533,1977.5496956214279,1977.2803370787333,1977.014244023026,1976.7514346370226,1976.4919269021018,1976.2357386162407,1975.9828874046243,1975.733390708325,1975.4872657628196,1975.2445295882478,1975.0051989942556,1974.7692905844115,1974.5368207508625,1974.307805659637,1974.0822612278116,1973.8602030986253,1973.6416466340183,1973.426606941228,1973.2150989099098,1973.0071372102877,1972.8027362531448,1972.6019101570919,1972.4046727352904,1972.2110374995952,1972.0210177056515,1971.8346264279921,1971.651876598191,1971.4727809650954,1971.29735201771,1971.1256019409193,1970.9575426154097,1970.793185621218,1970.6325422181314,1970.4756233183546,1970.322439487552,1970.1730009742666,1970.0273177474285,1969.8853995581812,1969.747256002903,1969.6128964965378,1969.4823301631393,1969.355565749514,1969.2326115875267,1969.1134755669284,1968.998165113435,1968.8866871777345,1968.7790482406988,1968.6752543502157,1968.5753111730073,1968.4792240131555,1968.3869977928703,1968.2986370535193,1968.2141460308776,1968.1335287526674,1968.0567890293687,1967.9839303407375,1967.9149557563783,1967.8498679512284,1967.7886692526622,1967.7313616409156,1967.6779467028234,1967.6284256005486,1967.5827990853154,1967.5410675435771,1967.5032310670954,1967.4692895294838,1967.4392426327063,1967.4130899158172,1967.3908307466354,1967.3724643040641,1967.3579895555135,1967.347405233085,1967.3407097926865,1967.3379013715023,1967.3389778042645,1967.3439366942714,1967.3527754701802,1967.365491412346,1967.3820816515479,1967.4025430991228,1967.426872325956,1967.4550654990576,1967.4871184386084,1967.5230267216414,1967.5627857077982,1967.6063904806733,1967.6538358037399,1967.7051161395395,1967.7602256818332,1967.8191583228092,1967.8819075634703,1967.9484664690274,1968.0188277350298,1968.0929838094585,1968.170926968543,1968.2526493272346,1968.3381428318037,1968.4273992560622,1968.5204101813363,1968.6171669261037,1968.7176604427434,1968.8218812495606,1968.92981941634,1969.0414645750282,1969.1568059482458,1969.2758323883213,1969.398532398046,1969.5248941185416,1969.654905311829,1969.7885533827282,1969.9258254344084,1970.0667083048459,1970.2111885630934,1970.3592524746916,1970.5108859309482,1970.6660743595314,1970.8248026756114,1970.987055302356,1971.1528162315694,1971.3220690907972,1971.4947971998631,1971.6709836046612,1971.8506110938858,1972.033662199917,1972.220119157082,1972.4099638274408,1972.6031776468315,1972.7997416013234,1972.9996362105478,1973.2028415134373,1973.4093370596263,1973.6191019105663,1973.8321146600938,1974.0483534602513,1974.2677960150363,1974.4904195432953,1974.7162007639097,1974.945115944255,1975.1771409725736,1975.41225136785,1975.6504222243445,1975.8916281601635,1976.1358432865034,1976.3830411801184,1976.6331948671302,1976.8862768218291,1977.1422589800611,1977.4011127854599,1977.6628092474248,1977.9273189426867,1978.1946119596485,1978.464657855692,1978.7374256558478,1979.0128838684898,1979.2910004965452,1979.571743040982,1979.8550785237528,1980.1409735788798,1980.429394585718,1980.7203077449976,1981.0136790781673,1981.309474391427,1981.6076591922758,1981.9081985715568,1982.211057126871,1982.5161989460212,1982.8235876277652,1983.1331863585435,1983.4449580155651,1983.7588651956303,1984.0748701619877,1984.3929347891492,1984.7130205247295,1985.0350883585754,1985.3590988271808,1985.6850120517602,1986.012787764141,1986.3423853009963,1986.6737635871116,1987.0068811316223,1987.341696037629,1987.6781660203194,1988.0162484494258,1988.3559004115468,1988.6970787550174,1989.0397401055554,1989.3838408644522,1989.7293371897142,1990.0761849573153,1990.4243397021548,1990.77375655292,1991.124390209541,1991.476195005836,1991.829125013939,1992.1831340955694,1992.538175886759,1992.894203785817,1993.2511709911896,1993.6090305555454,1993.9677353818336,1994.3272381617287,1994.6874913420606,1995.048447174008,1995.4100578073185,1995.7722753577495,1996.1350519172972,1996.4983395064055,1996.862089995338,1997.226255062871,1997.590786232881,1997.9556349555576,1998.3207526796882,1998.686090897353,1999.0516011602183,1999.4172350666156,1999.7829442263067,2000.1486802078018,2000.5143944808094,2000.8800383996618,2001.2455632719402,2001.6109204721374,2001.97606150582,2002.340938007664,2002.7055017350258,2003.069704598034,2003.4334987091506,2003.7968364100211,2004.1596702683,2004.521953072859,2004.8836378460373,2005.2446778575186,2005.6050266057543,2005.9646377709928,2006.323465197522,2006.681462951381,2007.0385854198664,2007.3947873757427,2007.7500239895323,2008.1042508134083,2008.457423729797,2008.8094988898451,2009.1604327176183,2009.5101819784102,2009.8587038158187,2010.2059556999784,2010.5518953336077,2010.896480599446,2011.2396695616592,2011.5814204936266,2011.9216919471185,2012.2604428470427,2012.5976325362994,2012.9332207589766,2013.267167644772,2013.5994337323752,2013.929980001786,2014.2587678559282,2014.5857590556197,2014.9109156724032,2015.2342000827725,2015.555574977828,2015.8750033676693,2016.192448578903,2016.5078742683934,2016.821244490577,2017.1325237944113,2017.4416772684008,2017.7486705219444,2018.0534696553332,2018.3560412309819,2018.656352238181,2018.9543700635443,2019.2500624740487,2019.5433976134764,2019.8343440183473,2020.122870646443,2020.408946899261,2020.6925426323141,2020.9736281617922,2021.252174278545,2021.5281522600521,2021.801533850763,2022.072291215271,2022.340396921934,2022.6058240044076,2022.8685460532197,2023.1285372302748,2023.3857722022356,2023.6402260974517,2023.8918745456735,2024.1406937453714,2024.386660462102,2024.6297519579232,2024.869945948818,2025.1072206461245,2025.3415548275982,2025.5729278423637,2025.8013195481303,2026.0267102622229,2026.2490807588815,2026.4684122779408,2026.684686507159,2026.8978855422506,2027.1079918781797,2027.314988482022,2027.5188588918122,2027.7195872103316,2027.9171579950535,2028.111556185029,2028.3027671349023,2028.4907766923561,2028.6755712277054,2028.8571376079278,2029.0354631719338,2029.2105357326327,2029.3823435899758,2029.5508755379342,2029.7161208633827,2029.8780693567728,2030.0367113642071,2030.192037846029,2030.344040346581,2030.4927108824372,2030.6380418704166,2030.7800261529892,2030.9186570711727,2031.053928523656,2031.1858349971399,2031.314371572761,2031.4395339057621,2031.5613181970677,2031.6797211957198,2031.7947402313532,2031.9063732280345,2032.0146186645666,2032.1194754974892,2032.22094308248,2032.3190211136282,2032.413709604519,2032.5050089362821,2032.5929199352804,2032.677443901727,2032.7585825819342,2032.8363381503168,2032.9107132425413,2032.9817110057343,2033.0493350979998,2033.1135896372448,2033.174479161385,2033.2320086226555,2033.2861833823442,2033.3370091666034,2033.3844919942858,2033.4286381384786,2033.4694541562167,2033.5069469567625,2033.541123864632,2033.5719926615457,2033.5995616109549,2033.623839477721,2033.6448355380805,2033.6625595470286,2033.6770216712416,2033.68823244555,2033.6962027756845,2033.70094395078,2033.7024676206045,,,,,,,,,,,,,,,,,,,,,,,,,,,,,,,,,,,,,,,,,,,,,,,,,,,,,,,,,,,,,,,,,,,,,,,,,,,,,,,,,,,,,,,,,,,,,,,,,,,,,,,,,,,,,,,,,,,,,,,,,,,,,,,,,,,,,,,,,,,,,,,,,,,,,,,,,,,,,,,,,,,,,,,,,,,,,,,,,,,,,,,,,,,,,,,,,,,,,,,,,,,,,,,,,,,,,,,,,,,,,,,,,,,,,,,,,,,,,,,,,,,,,,,,,,,,,,,,,,,,,,,,,,,,,,,,,,,,,,,,,,,,,,,,,,,,,,,,,,,,,,,,,,,,,,,,,,,,,,,,,,,,,,,,,,,,,,,,,,,,,,,,,,,,,,,,,,,,,,,,,,,,,,,,,,,,,,,,,,,,,,,,,,,,,,,,,,,,,,,,,,,,,,,,,,,,,,,,,,,,,,,,,,,,,,,,,,,,,,,,,,,,,,,,,,,,,,,,,,,,,,,,,,,,,,,,,,,,,,,,,,,,,,,,,,,,,,,,,,,,,,,,,,,,,,,,,,,,,,,,,,,,,,,,,,,,,,,,,,,,,,,,,,,,,,,,,,,,,,,,,,,,,,,,,,,,,,,,,,,,,,,,,,,,,,,,,,,,,,,,,,,,,,,,,,,,,,,,,,,,,,,,,,,,,,,,,,,,,,,,,,,,,,,,,,,,,,,,,,,,,,,,,,,,,,,,,,,,,,,,,,,,,,,,,,,,,,,,,,,,,,,,,,,,,,,,,,,,,,,,,,,,,,,,,,,,,,,,,,,,,,,,,,,,,,,,,,,,,,,,,,,,,,,,,,,,,,,,,,,,,,,,,,,,,,,,,,,,,,,,,,,,,,,,,,,,,,,,,,,,,,,,,,,,,,,,,,,,,,,,,,,,,,,,,,,,,,,,,,,,,,,,,,,,,,,,,,,,,,,,,,,,,,,,,,,,,,,,,,,,,,,,,,,,,,,,,,,,,,,,,,,,,,,,,,,,,,,,,,,,,,,,,,,,,,,,,,,,,,,,,,,,,,,,,,,,,,,,,,,,,,,,,,,,,,,,,,,,,,,,,,,,,,,,,,,,,,,,,,,,,,,,,,,,,,,,,,,,,,,,,,,,,,,,,,,,,,,,,,,,,,,,,,,,,,,,,,,,,,,,,,,,,,,,,,,,,,,,,,,,,,,,,,,,,,,,,,,,,,,,,,,,,,,,,,,,,,,,,,,,,,,,,,,,,,,,,,,,,,,,,,,,,,,,,,,,,,,,,,,,,,,,,,,,,,,,,,,,,,,,,,,,,,,,,,,,,,,,,,,,,,,,,,,,,,,,,,,,,,,,,,,,,,,,,,,,,,,,,,,,,,,,,,,,,,,,,,,,,,,,,,,,,,,,,,,,,,,,,,,,,,,,,,,,,,,,,,,,,,,,,,,,,,,,,,,,,,,,,,,,,,,,,,,,,,,,,,,,,,,,,,,,,,,,,,,,,,,,,,,,,,,,,,,,,,,,,,,,,,,,,,,
