0,1,2,3,4,5,6,7,8,9,10,11,12,13,14,15,16,17,18,19,20,21,22,23,24,25,26,27,28,29,30,31,32,33,34,35,36,37,38,39,40,41,42,43,44,45,46,47,48,49,50,51,52,53,54,55,56,57,58,59,60,61,62,63,64,65,66,67,68,69,70,71,72,73,74,75,76,77,78,79,80,81,82,83,84,85,86,87,88,89,90,91,92,93,94,95,96,97,98,99,100,101,102,103,104,105,106,107,108,109,110,111,112,113,114,115,116,117,118,119,120,121,122,123,124,125,126,127,128,129,130,131,132,133,134,135,136,137,138,139,140,141,142,143,144,145,146,147,148,149,150,151,152,153,154,155,156,157,158,159,160,161,162,163,164,165,166,167,168,169,170,171,172,173,174,175,176,177,178,179,180,181,182,183,184,185,186,187,188,189,190,191,192,193,194,195,196,197,198,199,200,201,202,203,204,205,206,207,208,209,210,211,212,213,214,215,216,217,218,219,220,221,222,223,224,225,226,227,228,229,230,231,232,233,234,235,236,237,238,239,240,241,242,243,244,245,246,247,248,249,250,251,252,253,254,255,256,257,258,259,260,261,262,263,264,265,266,267,268,269,270,271,272,273,274,275,276,277,278,279,280,281,282,283,284,285,286,287,288,289,290,291,292,293,294,295,296,297,298,299,300,301,302,303,304,305,306,307,308,309,310,311,312,313,314,315,316,317,318,319,320,321,322,323,324,325,326,327,328,329,330,331,332,333,334,335,336,337,338,339,340,341,342,343,344,345,346,347,348,349,350,351,352,353,354,355,356,357,358,359,360,361,362,363,364,365,366,367,368,369,370,371,372,373,374,375,376,377,378,379,380,381,382,383,384,385,386,387,388,389,390,391,392,393,394,395,396,397,398,399,400,401,402,403,404,405,406,407,408,409,410,411,412,413,414,415,416,417,418,419,420,421,422,423,424,425,426,427,428,429,430,431,432,433,434,435,436,437,438,439,440,441,442,443,444,445,446,447,448,449,450,451,452,453,454,455,456,457,458,459,460,461,462,463,464,465,466,467,468,469,470,471,472,473,474,475,476,477,478,479,480,481,482,483,484,485,486,487,488,489,490,491,492,493,494,495,496,497,498,499,500,501,502,503,504,505,506,507,508,509,510,511,512,513,514,515,516,517,518,519,520,521,522,523,524,525,526,527,528,529,530,531,532,533,534,535,536,537,538,539,540,541,542,543,544,545,546,547,548,549,550,551,552,553,554,555,556,557,558,559,560,561,562,563,564,565,566,567,568,569,570,571,572,573,574,575,576,577,578,579,580,581,582,583,584,585,586,587,588,589,590,591,592,593,594,595,596,597,598,599,600,601,602,603,604,605,606,607,608,609,610,611,612,613,614,615,616,617,618,619,620,621,622,623,624,625,626,627,628,629,630,631,632,633,634,635,636,637,638,639,640,641,642,643,644,645,646,647,648,649,650,651,652,653,654,655,656,657,658,659,660,661,662,663,664,665,666,667,668,669,670,671,672,673,674,675,676,677,678,679,680,681,682,683,684,685,686,687,688,689,690,691,692,693,694,695,696,697,698,699,700,701,702,703,704,705,706,707,708,709,710,711,712,713,714,715,716,717,718,719,720,721,722,723,724,725,726,727,728,729,730,731,732,733,734,735,736,737,738,739,740,741,742,743,744,745,746,747,748,749,750,751,752,753,754,755,756,757,758,759,760,761,762,763,764,765,766,767,768,769,770,771,772,773,774,775,776,777,778,779,780,781,782,783,784,785,786,787,788,789,790,791,792,793,794,795,796,797,798,799,800,801,802,803,804,805,806,807,808,809,810,811,812,813,814,815,816,817,818,819,820,821,822,823,824,825,826,827,828,829,830,831,832,833,834,835,836,837,838,839,840,841,842,843,844,845,846,847,848,849,850,851,852,853,854,855,856,857,858,859,860,861,862,863,864,865,866,867,868,869,870,871,872,873,874,875,876,877,878,879,880,881,882,883,884,885,886,887,888,889,890,891,892,893,894,895,896,897,898,899,900,901,902,903,904,905,906,907,908,909,910,911,912,913,914,915,916,917,918,919,920,921,922,923,924,925,926,927,928,929,930,931,932,933,934,935,936,937,938,939,940,941,942,943,944,945,946,947,948,949,950,951,952,953,954,955,956,957,958,959,960,961,962,963,964,965,966,967,968,969,970,971,972,973,974,975,976,977,978,979,980,981,982,983,984,985,986,987,988,989,990,991,992,993,994,995,996,997,998,999,1000,1001,1002,1003,1004,1005,1006,1007,1008,1009,1010,1011,1012,1013,1014,1015,1016,1017,1018,1019,1020,1021,1022,1023,1024,1025,1026,1027,1028,1029,1030,1031,1032,1033,1034,1035,1036,1037,1038,1039,1040,1041,1042,1043,1044,1045,1046,1047,1048,1049,1050,1051,1052,1053,1054,1055,1056,1057,1058,1059,1060,1061,1062,1063,1064,1065,1066,1067,1068,1069,1070,1071,1072,1073,1074,1075,1076,1077,1078,1079,1080,1081,1082,1083,1084,1085,1086,1087,1088,1089,1090,1091,1092,1093,1094,1095,1096,1097,1098,1099,1100,1101,1102,1103,1104,1105,1106,1107,1108,1109,1110,1111,1112,1113,1114,1115,1116,1117,1118,1119,1120,1121,1122,1123,1124,1125,1126,1127,1128,1129,1130,1131,1132,1133,1134,1135,1136,1137,1138,1139,1140,1141,1142,1143,1144,1145,1146,1147,1148,1149,1150,1151,1152,1153,1154,1155,1156,1157,1158,1159,1160,1161,1162,1163,1164,1165,1166,1167,1168,1169,1170,1171,1172,1173,1174,1175,1176,1177,1178,1179,1180,1181,1182,1183,1184,1185,1186,1187,1188,1189,1190,1191,1192,1193,1194,1195,1196,1197,1198,1199,1200,1201,1202,1203,1204,1205,1206,1207,1208,1209,1210,1211,1212,1213,1214,1215,1216,1217,1218,1219,1220,1221,1222,1223,1224,1225,1226,1227,1228,1229,1230,1231,1232,1233,1234,1235,1236,1237,1238,1239,1240,1241,1242,1243,1244,1245,1246,1247,1248,1249,1250,1251,1252,1253,1254,1255,1256,1257,1258,1259,1260,1261,1262,1263,1264,1265,1266,1267,1268,1269,1270,1271,1272,1273,1274,1275,1276,1277,1278,1279,1280,1281,1282,1283,1284,1285,1286,1287,1288,1289,1290,1291,1292,1293,1294,1295,1296,1297,1298,1299,1300,1301,1302,1303,1304,1305,1306,1307,1308,1309,1310,1311,1312,1313,1314,1315,1316,1317,1318,1319,1320,1321,1322,1323,1324,1325,1326,1327,1328,1329,1330,1331,1332,1333,1334,1335,1336,1337,1338,1339,1340,1341,1342,1343,1344,1345,1346,1347,1348,1349,1350,1351,1352,1353,1354,1355,1356,1357,1358,1359,1360,1361,1362,1363,1364,1365,1366,1367,1368,1369,1370,1371,1372,1373,1374,1375,1376,1377,1378,1379,1380,1381,1382,1383,1384,1385,1386,1387,1388,1389,1390,1391,1392,1393,1394,1395,1396,1397,1398,1399,1400,1401,1402,1403,1404,1405,1406,1407,1408,1409,1410,1411,1412,1413,1414,1415,1416,1417,1418,1419,1420,1421,1422,1423,1424,1425,1426,1427,1428,1429,1430,1431,1432,1433,1434,1435,1436,1437,1438,1439,1440,1441,1442,1443,1444,1445,1446,1447,1448,1449,1450,1451,1452,1453,1454,1455,1456,1457,1458,1459,1460,1461,1462,1463,1464,1465,1466,1467,1468,1469,1470,1471,1472,1473,1474,1475,1476,1477,1478,1479,1480,1481,1482,1483,1484,1485,1486,1487,1488,1489,1490,1491,1492,1493,1494,1495,1496,1497,1498,1499,1500,1501,1502,1503,1504,1505,1506,1507,1508,1509,1510,1511,1512,1513,1514,1515,1516,1517,1518,1519,1520,1521,1522,1523,1524,1525,1526,1527,1528,1529,1530,1531,1532,1533,1534,1535,1536,1537,1538,1539,1540,1541,1542,1543,1544,1545,1546,1547,1548,1549,1550,1551,1552,1553,1554,1555,1556,1557,1558,1559,1560,1561,1562,1563,1564,1565,1566,1567,1568,1569,1570,1571,1572,1573,1574,1575,1576,1577,1578,1579,1580,1581,1582,1583,1584,1585,1586,1587,1588,1589,1590,1591,1592,1593,1594,1595,1596,1597,1598,1599,1600,1601,1602,1603,1604,1605,1606,1607,1608,1609,1610,1611,1612,1613,1614,1615,1616,1617,1618,1619,1620,1621,1622,1623,1624,1625,1626,1627,1628,1629,1630,1631,1632,1633,1634,1635,1636,1637,1638,1639,1640,1641,1642,1643,1644,1645,1646,1647,1648,1649,1650,1651,1652,1653,1654,1655,1656,1657,1658,1659,1660,1661,1662,1663,1664,1665,1666,1667,1668,1669,1670,1671,1672,1673,1674,1675,1676,1677,1678,1679,1680,1681,1682,1683,1684,1685,1686,1687,1688,1689,1690,1691,1692,1693,1694,1695,1696,1697,1698,1699,1700,1701,1702,1703,1704,1705,1706,1707,1708,1709,1710,1711,1712,1713,1714,1715,1716,1717,1718,1719,1720,1721,1722,1723,1724,1725,1726,1727,1728,1729,1730,1731,1732,1733,1734,1735,1736,1737,1738,1739,1740,1741,1742,1743,1744,1745,1746,1747,1748,1749,1750,1751,1752,1753,1754,1755,1756,1757,1758,1759,1760,1761,1762,1763,1764,1765,1766,1767,1768,1769,1770,1771,1772,1773,1774,1775,1776,1777,1778,1779,1780,1781,1782,1783,1784,1785,1786,1787,1788,1789,1790,1791,1792,1793,1794,1795,1796,1797,1798,1799,1800,1801,1802,1803,1804,1805,1806,1807,1808,1809,1810,1811,1812,1813,1814,1815,1816,1817,1818,1819,1820,1821,1822,1823,1824,1825,1826,1827,1828,1829,1830,1831,1832,1833,1834,1835,1836,1837,1838,1839,1840,1841,1842,1843,1844,1845,1846,1847,1848,1849,1850,1851,1852,1853,1854,1855,1856,1857,1858,1859,1860,1861,1862,1863,1864,1865,1866,1867,1868,1869,1870,1871,1872,1873,1874,1875,1876,1877,1878,1879,1880,1881,1882,1883,1884,1885,1886,1887,1888,1889,1890,1891,1892,1893,1894,1895,1896,1897,1898,1899,1900,1901,1902,1903,1904,1905,1906,1907,1908,1909,1910,1911,1912,1913,1914,1915,1916,1917,1918,1919,1920,1921,1922,1923,1924,1925,1926,1927,1928,1929,1930,1931,1932,1933,1934,1935,1936,1937,1938,1939,1940,1941,1942,1943,1944,1945,1946,1947,1948,1949,1950,1951,1952,1953,1954,1955,1956,1957,1958,1959,1960,1961,1962,1963,1964,1965,1966,1967,1968,1969,1970,1971,1972,1973,1974,1975,1976,1977,1978,1979,1980,1981,1982,1983,1984,1985,1986,1987,1988,1989,1990,1991,1992,1993,1994,1995,1996,1997,1998,1999,2000,2001,2002,2003,2004,2005,2006,2007,2008,2009,2010,2011,2012,2013,2014,2015,2016,2017,2018,2019,2020,2021,2022,2023,2024,2025,2026,2027,2028,2029,2030,2031,2032,2033,2034,2035,2036,2037,2038,2039,2040,2041,2042,2043,2044,2045,2046,2047,2048,2049,2050,2051,2052,2053,2054,2055,2056,2057,2058,2059,2060,2061,2062,2063,2064,2065,2066,2067,2068,2069,2070,2071,2072,2073,2074,2075,2076,2077,2078,2079,2080,2081,2082,2083,2084,2085,2086,2087,2088,2089,2090,2091,2092,2093,2094,2095,2096,2097,2098,2099
2121.0419934621746,2121.0391326606928,2121.0276577594036,2121.007592185927,2120.978960569049,2120.941788712479,2120.8961035686643,2120.841933207791,2120.7793067986076,2120.7082545819985,2120.6288077772647,2120.5409984393686,2120.444859373033,2120.340424146699,2120.227727136563,2120.1068035142675,2119.9776891815063,2119.840420728612,2119.695035455275,2119.5415714164683,2119.3800674412437,2119.2105631199324,2119.033098786936,2118.847715503571,2118.6544550409612,2118.4533598812436,2118.2444732370786,2118.0278390777025,2117.803502174508,2117.571508149106,2117.331903458556,2117.084735321811,2116.830051656767,2116.5679010368317,2116.2983326390245,2116.0213961856325,2115.7371418944344,2115.445620449663,2115.146882990057,2114.8409811022334,2114.5279668210032,2114.2078926370377,2113.8808115041734,2113.5467768443295,2113.205842562209,2112.85806308966,2112.5034934491537,2112.1421892832213,2111.774206813346,2111.399602773338,2111.0184344036047,2110.630759508359,2110.2366364909517,2109.8361243174427,2109.429282443694,2109.016170767663,2108.596849619464,2108.171379761617,2107.7398223820323,2107.3022390760793,2106.8586918153105,2106.4092429113516,2105.953954996466,2105.4928910285025,2105.0261142930376,2104.5536883625514,2104.075677023589,2103.5921442173467,2103.1031539876,2102.6087704351553,2102.109057737251,2101.604080227855,2101.0939024471563,2100.5785891107666,2100.0582050391895,2099.5328151092344,2099.0024842403545,2098.4672773960283,2097.927259591261,2097.3824959029535,2096.833051476653,2096.278991528875,2095.720381340523,2095.157286226003,2094.589771485322,2094.0179023720393,2093.441744085997,2092.861361758776,2092.276820390493,2091.6881847695827,2091.09551947335,2090.498888950091,2089.8983575760885,2089.2939896347384,2088.6858492571528,2088.0740003757783,2087.458506703593,2086.8394317315874,2086.216838743308,2085.590790848898,2084.961351044316,2084.328582281937,2083.692547507906,2083.053309641092,2082.4109315273126,2081.765475922388,2081.117005509291,2080.465582921814,2079.811270771901,2079.154131670512,2078.4942282010347,2077.8316228529598,2077.1663779774735,2076.498555785677,2075.828218352902,2075.155427590589,2074.4802451938413,2073.8027326031893,2073.1229509846316,2072.4409612291643,2071.7568240107466,2071.070599889318,2070.382349363112,2069.6921328090066,2069.000010364875,2068.3060418512982,2067.610286753339,2066.912804230725,2066.2136531511724,2065.5128921358896,2064.8105795819665,2064.1067736571863,2063.401532285922,2062.6949131216525,2061.9869735292277,2061.277770646255,2060.567361509405,2059.8558031255584,2059.143152420018,2058.4294661165754,2057.714800633407,2056.999212021978,2056.2827559578914,2055.56548780598,2054.84746272517,2054.128735733183,2053.4093617160656,2052.6893954243333,2051.9688914739904,2051.2479043402477,2050.526488326496,2049.804697517463,2049.082585762392,2048.360206721515,2047.637613930788,2046.914860795216,2046.1920005136221,2045.4690860387084,2044.7461701344914,2044.02330547796,2043.3005447108308,2042.5779404296343,2041.8555451717443,2041.133411424531,2040.4115916450614,2039.6901382761469,2038.9691037558978,2038.2485405159134,2037.5285009539134,2036.809037394596,2036.0902020813305,2035.3720472019236,2034.6546248997777,2033.9379872314887,2033.2221860879272,2032.5072731242385,2031.7932997174266,2031.08031696856,2030.3683757828694,2029.6575269818893,2028.9478213324228,2028.2393094862412,2027.5320419218058,2026.8260689103236,2026.1214405069497,2025.4182066235303,2024.7164171658446,2024.016122106735,2023.31737141804,2022.6202149302994,2021.924702236675,2021.230882666235,2020.5388052811657,2019.8485188703214,2019.1600719549344,2018.473512846648,2017.7888897444902,2017.106250806677,2016.425644187109,2015.7471180576524,2015.0707206028217,2014.3964999892912,2013.7245043410753,2013.0547817244299,2012.3873801343636,2011.722347492494,2011.0597316578708,2010.3995804276406,2009.7419415024008,2009.0868624349014,2008.4343906148395,2007.7845732946148,2007.1374576227763,2006.4930906859709,2005.85151954763,2005.2127912278102,2004.5769526327051,2003.9440505117302,2003.3141314620548,2002.6872419521846,2002.0634283674349,2001.4427370639005,2000.825214377374,2000.2109065859938,1999.5998598834155,1998.9921203872648,1998.387734150811,1997.7867471328332,1997.1892051341938,1996.5951537550836,1996.0046383887568,1995.4177042229537,1994.834396225882,1994.2547591212212,1993.6788373777092,1993.1066752291326,1992.53831671174,1991.9738056971673,1991.4131859135725,1990.856500965528,1990.3037943721465,1989.7551096023387,1989.2104900426996,1988.6699789069437,1988.1336191842638,1987.6014536777304,1987.0735250816135,1986.5498760205396,1986.030549041559,1985.5155866029381,1985.0050310799656,1984.4989247650492,1983.9973098255896,1983.5002282309922,1983.007721709672,1982.5198317620168,1982.0365996879261,1981.5580665737516,1981.0842732426895,1980.6152602286759,1980.151067808674,1979.691736047101,1979.237304769629,1978.7878134736661,1978.3433012594928,1977.9038068015352,1977.4693683382675,1977.0400236961618,1976.6158103424102,1976.1967654189525,1975.7829257363037,1975.3743277523374,1974.9710075684804,1974.5730009449417,1974.1803433207763,1973.7930698436523,1973.411215395119,1973.0348145622859,1972.663901563623,1972.2985102108319,1971.9386739558815,1971.584425965192,1971.2357991171011,1970.8928259238328,1970.5555384911604,1970.2239685875757,1969.898147766975,1969.5781074389706,1969.26387886979,1968.955493165283,1968.65298125146,1968.3563738399782,1968.0657013733069,1967.7809939637666,1967.5022813503815,1967.2295928666476,1966.9629574066396,1966.7024034056838,1966.4479588408706,1966.1996512396445,1965.9575076968717,1965.7215549056639,1965.4918192027662,1965.2683266175584,1965.0511029084362,1964.8401735942855,1964.6355639704982,1964.4372990551635,1964.2454034792313,1964.0599014318104,1963.8808167295745,1963.7081729356225,1963.5419933930987,1963.3823011654554,1963.2291189920918,1963.0824693145457,1962.9423743306359,1962.8088560132642,1962.6819360894185,1962.5616360073636,1962.4479768818828,1962.3409794224365,1962.2406638949503,1962.147050126974,1962.0601575314563,1961.9800051572574,1961.9066117505683,1961.8399957635463,1961.780175308134,1961.7271681236284,1961.6809915916754,1961.6416627642027,1961.6091983523584,1961.583614679299,1961.564927644291,1961.5531527123283,1961.5483049089794,1961.5503988074809,1961.5594485113234,1961.5754676367915,1961.598469285724,1961.6284660080817,1961.665469774212,1961.7094919636982,1961.7605433667431,1961.8186342025456,1961.883774147775,1961.9559723540453,1962.035237449926,1962.1215775542682,1962.2150003369534,1962.3155130909543,1962.423122713877,1962.537835603448,1962.65965759271,1962.7885939910677,1962.9246496731591,1963.067829128327,1963.2181364581127,1963.3755753457094,1963.5401489791186,1963.711859953568,1963.890710249346,1964.076701290328,1964.2698339959618,1964.470108797913,1964.6775256526055,1964.8920840707553,1965.1137831561898,1965.3426216182495,1965.578597728154,1965.8217092497625,1966.0719534104549,1966.329326919026,1966.5938259920567,1966.8654463851053,1967.1441834348077,1967.4300320944399,1967.7229869536113,1968.0230422408727,1968.3301918031505,1968.6444290551142,1968.9657468879257,1969.2941375596852,1969.6295926247803,1969.972102913092,1970.321658522947,1970.6782488075355,1971.0418623576304,1971.412486998868,1971.7901098242764,1972.1747172584096,1972.566295134414,1972.9648287641558,1973.3703029746255,1973.7827021029193,1974.2020099769707,1974.6282099112523,1975.0612847178465,1975.5012167134178,1975.9479877127485,1976.4015790181752,1976.861971418312,1977.3291451956536,1977.8030801183136,1978.2837553854656,1978.7711495374444,1979.2652403731063,1979.766004894328,1980.2734192950911,1980.7874590247682,1981.3080988984286,1981.835313182759,1982.369075635283,1982.9093595054026,1983.4561374879268,1984.0093816441033,1984.5690633315305,1985.1351531648647,1985.70762101381,1986.2864360262195,1986.871566634118,1987.4629805097775,1988.060644506744,1988.664524662488,1989.2745862610634,1989.8907938867974,1990.5131114560345,1991.1415022500555,1991.7759289451187,1992.4163536310998,1993.0627378021004,1993.715042288593,1994.3732271477406,1995.037251569905,1995.7070738236607,1996.3826512259236,1997.0639401205651,1997.7508958756482,1998.443472942296,1999.1416249593703,1999.8453048041529,2000.5544645285788,2001.2690552495899,2001.989027113697,2002.7143293434606,2003.4449102762298,2004.1807173565933,2004.9216971105402,2005.6677951293243,2006.418956065871,2007.1751236437285,2007.9362406951973,2008.7022492225535,2009.473090446662,2010.2487048295927,2011.0290320606914,2011.8140109732424,2012.603579422153,2013.3976742155653,2014.1962311162233,2014.9991848537636,2015.8064691223724,2016.6180165978876,2017.4337590299292,2018.2536273847174,2019.0775519229474,2019.9054621559262,2020.7372867489385,2021.5729534671868,2022.412389176478,2023.2555198519979,2024.1022705748928,2024.9525655182752,2025.8063279157618,2026.6634800190352,2027.5239430943295,2028.3876375162674,2029.2544829107644,2030.1243982159604,2030.9973016445413,2031.8731106521261,2032.7517419737965,2033.63311168657,2034.51713521668,2035.403727288415,2036.2928018972843,2037.184272365929,2038.0780514324786,2038.9740512642377,2039.872183391839,2040.7723586608265,2041.6744872501704,2042.5784787232221,2043.4842420624307,2044.3916856776743,2045.3007174101185,2046.211244553103,2047.1231738892454,2048.0364117267272,2048.9508639242063,2049.866435906799,2050.7830326869216,2051.7005588948614,2052.618918805282,2053.5380163515565,2054.4577551376547,2055.37803846707,2056.2987693895925,2057.2198507440207,2058.1411851846406,2059.062675192694,2059.984223079324,2060.9057309958207,2061.827100968212,2062.748234946052,2063.669034851213,2064.5894026571045,2065.509240477229,2066.4284505559613,2067.3469351623667,2068.2645965205375,2069.181336847042,2070.097058440717,2071.011663743253,2071.925055353942,2072.83713603997,2073.747808783231,2074.656976864067,2075.5645439543537,2076.4704141951725,2077.3744922404203,2078.2766832724287,2079.176893008269,2080.075027693896,2080.970994086133,2081.86469945171,2082.7560516174362,2083.644959039457,2084.531330805581,2085.415076568655,2086.29610650267,2087.1743313331385,2088.049662407238,2088.922011748161,2089.791292078641,2090.6574168432867,2091.520300272314,2092.3798574623424,2093.2360043837766,2094.0886578115296,2094.937735271186,2095.7831550411756,2096.6248362020333,2097.4626987445104,2098.296663708141,2099.126653258161,2099.952590662651,2100.7744002408963,2101.5920073758775,2102.4053385864268,2103.214321569389,2104.0188851651315,2104.8189592890017,2105.614474892025,2106.405363959361,2107.1915595193414,2107.9729956586225,2108.749607540611,2109.5213314052617,2110.2881045490244,2111.049865324703,2111.80655320464,2112.5581088889608,2113.3044743964174,2114.0455931138686,2114.78140980564,2115.5118705742257,2116.236922793031,2116.9565150545714,2117.6705971458823,2118.379120043852,2119.082035934925,2119.779298245804,2120.4708616502453,2121.1566820491144,2121.836716550886,2122.5109234619204,2123.1792622820462,2123.8416937083007,2124.498179644788,2125.1486832243486,2125.793168871645,2126.4316023788624,2127.0639508966606,2127.6901828415803,2128.310267816885,2128.92417656995,2129.5318809545656,2130.1333538977406,2130.728569378309,2131.3175024311445,2131.9001292061766,2132.476427066814,2133.046374670544,2133.6099520106386,2134.167140415694,2134.717922485931,2135.262281988148,2135.8002037710035,2136.331673720911,2136.8566787630116,2137.375206936429,2137.8872475101443,2138.3927910429197,2138.891829371455,2139.3843555831695,2139.870363990242,2140.349850104504,2140.8228106359115,2141.2892435141766,2141.7491478982765,2142.202524150706,2142.6493738016284,2143.0896995524245,2143.5235053056545,2143.950796150839,2144.3715783020043,2144.7858590417604,2145.1936466763736,2145.5949504973755,2145.989780790277,2146.378148887544,2146.7600672001154,2147.135549192972,2147.5046093262654,2147.8672629895873,2148.2235264452106,2148.5734168050403,2148.9169520611676,2149.2541511456698,2149.5850339738204,2149.909621459346,2150.227935521612,2150.53999910258,2150.8458361801627,2151.145471738605,2151.438931702806,2151.7262428860627,2152.0074329573317,2152.2825304113703,2152.5515645523033,2152.8145654942755,2153.0715641755237,2153.3225924017056,2153.567682903059,2153.806869349002,2154.0401863161132,2154.2676692439773,2154.4893543667295,2154.7052786316535,2154.915479678266,2155.1199958827624,2155.318866400874,2155.51213119129,2155.699831009496,2155.8820073140178,2156.0587021081915,2156.229957845262,2156.3958174540116,2156.5563244264995,2156.7115229046203,2156.861457743569,2157.006174527063,2157.145719503482,2157.28013948634,2157.4094818160556,2157.5337943923464,2157.653125700572,2157.7675247918587,2157.8770412417534,2157.9817251251375,2158.081627013488,2158.176797975008,2158.267289565054,2158.35315381294,2158.4344432197267,2158.5112107674017,2158.5835099151054,2158.651394555222,2158.7149189423153,2158.7741376375097,2158.829105482115,2158.879877595212,2158.926509401692,2158.969056676561,2159.0075755689763,2159.042122599942,2159.0727546470484,2159.099528908544,2159.1225028471476,2159.141734136321,2159.1572806223885,2159.169200288303,2159.1775511821393,2159.1823913301937,2159.183778722325,,,,,,,,,,,,,,,,,,,,,,,,,,,,,,,,,,,,,,,,,,,,,,,,,,,,,,,,,,,,,,,,,,,,,,,,,,,,,,,,,,,,,,,,,,,,,,,,,,,,,,,,,,,,,,,,,,,,,,,,,,,,,,,,,,,,,,,,,,,,,,,,,,,,,,,,,,,,,,,,,,,,,,,,,,,,,,,,,,,,,,,,,,,,,,,,,,,,,,,,,,,,,,,,,,,,,,,,,,,,,,,,,,,,,,,,,,,,,,,,,,,,,,,,,,,,,,,,,,,,,,,,,,,,,,,,,,,,,,,,,,,,,,,,,,,,,,,,,,,,,,,,,,,,,,,,,,,,,,,,,,,,,,,,,,,,,,,,,,,,,,,,,,,,,,,,,,,,,,,,,,,,,,,,,,,,,,,,,,,,,,,,,,,,,,,,,,,,,,,,,,,,,,,,,,,,,,,,,,,,,,,,,,,,,,,,,,,,,,,,,,,,,,,,,,,,,,,,,,,,,,,,,,,,,,,,,,,,,,,,,,,,,,,,,,,,,,,,,,,,,,,,,,,,,,,,,,,,,,,,,,,,,,,,,,,,,,,,,,,,,,,,,,,,,,,,,,,,,,,,,,,,,,,,,,,,,,,,,,,,,,,,,,,,,,,,,,,,,,,,,,,,,,,,,,,,,,,,,,,,,,,,,,,,,,,,,,,,,,,,,,,,,,,,,,,,,,,,,,,,,,,,,,,,,,,,,,,,,,,,,,,,,,,,,,,,,,,,,,,,,,,,,,,,,,,,,,,,,,,,,,,,,,,,,,,,,,,,,,,,,,,,,,,,,,,,,,,,,,,,,,,,,,,,,,,,,,,,,,,,,,,,,,,,,,,,,,,,,,,,,,,,,,,,,,,,,,,,,,,,,,,,,,,,,,,,,,,,,,,,,,,,,,,,,,,,,,,,,,,,,,,,,,,,,,,,,,,,,,,,,,,,,,,,,,,,,,,,,,,,,,,,,,,,,,,,,,,,,,,,,,,,,,,,,,,,,,,,,,,,,,,,,,,,,,,,,,,,,,,,,,,,,,,,,,,,,,,,,,,,,,,,,,,,,,,,,,,,,,,,,,,,,,,,,,,,,,,,,,,,,,,,,,,,,,,,,,,,,,,,,,,,,,,,,,,,,,,,,,,,,,,,,,,,,,,,,,,,,,,,,,,,,,,,,,,,,,,,,,,,,,,,,,,,,,,,,,,,,,,,,,,,,,,,,,,,,,,,,,,,,,,,,,,,,,,,,,,,,,,,,,,,,,,,,,,,,,,,,,,,,,,,,,,,,,,,,,,,,,,,,,,,,,,,,,,,,,,,,,,,,,,,,,,,,,,,,,,,,,,,,,,,,,,,,,,,,,,,,,,,,,,,,,,,,,,,,,,,,,,,,,,,,,,,,,,,,,,,,,,,,,,,,,,,,,,,,,,,,,,,,,,,,,,,,,,,,,,,,,,,,,,,,,,,,,,,,,,,,,,,,,,,,,,,,,,,,,,,,,,,,,,,,,,,,,,,,
2049.787645975186,2049.7870667299558,2049.783485180297,2049.7768999478794,2049.767310056228,2049.7547148950603,2049.7391142154834,2049.7205081572556,2049.698897271203,2049.6742825233964,2049.646665291237,2049.6160473554996,2049.5824308903702,2049.5458184530953,2049.5062129663493,2049.463617694535,2049.418036229435,2049.369472488866,2049.3179307084533,2049.263415401781,2049.2059313087957,2049.145483391292,2049.082076876697,2049.0157172872664,2048.946410421836,2048.87416231933,2048.7989792494764,2048.7208677331537,2048.6398345591087,2048.5558867824348,2048.4690317198224,2048.3792769614656,2048.28663039678,2048.191100227561,2048.092694951952,2047.9914233342304,2047.8872943875945,2047.7803173744155,2047.6705018008279,2047.5578573809084,2047.4423939915453,2047.3241216764136,2047.2030506982512,2047.0791915814143,2046.9525551276743,2046.823152432035,2046.6909949192554,2046.5560943921596,2046.4184630564298,2046.2781135016044,2046.1350586646438,2045.9893118194825,2045.8408865954027,2045.6897969816325,2045.536057282058,2045.3796820557523,2045.2206861277105,2045.0590846673565,2044.894893231363,2044.728127706684,2044.5588042016716,2044.3869389725082,2044.2125484036135,2044.0356490176864,2043.8562575186247,2043.6743908559654,2043.4900662682426,2043.3033012947167,2043.1141137672398,2042.9225217741425,2042.7285436131813,2042.5321977862918,2042.333503037767,2042.1324783875837,2041.9291431452687,2041.7235169095816,2041.5156195389993,2041.305471100715,2041.0930918277647,2040.8785020773848,2040.6617222845177,2040.442772942107,2040.2216746134593,2039.9984479470531,2039.7731136828438,2039.5456926464087,2039.3162057130846,2039.0846737514273,2038.851117599546,2038.6155581120474,2038.378016242288,2038.1385130909653,2037.8970699092836,2037.653708085091,2037.4084491132069,2037.161314555619,2036.9123260236004,2036.6615051866177,2036.4088737727297,2036.1544535288322,2035.8982661577897,2035.640333281139,2035.3806764371002,2035.119317091177,2034.8562766552873,2034.591576510152,2034.3252380086242,2034.057282459557,2033.7877311202003,2033.5166052153859,2033.2439259717346,2032.969714643758,2032.6939925257725,2032.4167809504333,2032.138101265369,2031.8579748004963,2031.576422861715,2031.2934667562565,2031.0091278253467,2030.7234274699792,2030.4363871568182,2030.1480283875967,2029.8583726470185,2029.5674413673055,2029.2752559187172,2028.981837615497,2028.6872077400824,2028.3913875705705,2028.0943983712696,2027.79626134918,2027.4969976222474,2027.1966282144008,2026.8951740583075,2026.5926559924528,2026.2890947537671,2025.9845109702567,2025.6789251499924,2025.372357665235,2025.0648287398133,2024.7563584434045,2024.4469666858236,2024.1366732003619,2023.8254975218586,2023.5134589822235,2023.2005767250334,2022.8868697383934,2022.5723569377026,2022.257057273178,2021.9409897643513,2021.6241734534315,2021.3066273643497,2020.9883705031937,2020.6694218732516,2020.3498004803234,2020.029525327489,2019.7086154054166,2019.3870896717222,2019.0649670283042,2018.7422663299214,2018.4190064223928,2018.0952061653838,2017.7708844138126,2017.446059969239,2017.1207515170547,2016.7949775657069,2016.4687564179746,2016.1421061897188,2015.815044849325,2015.487590239298,2015.1597600751393,2014.8315719531522,2014.5030433996328,2014.174191940349,2013.8450351286388,2013.5155905256358,2013.1858756711663,2012.8559080461278,2012.5257050348696,2012.195283938694,2011.864662037641,2011.5338566230596,2011.2028849510705,2010.8717641672204,2010.5405112988944,2010.2091433179169,2009.877677195849,2009.5461299300773,2009.2145185634113,2008.8828601992184,2008.5511720088505,2008.2194712208138,2007.8877750649056,2007.556100689167,2007.2244651133508,2006.892885231075,2006.5613778379402,2006.2299597010306,2005.8986476340942,2005.5674584672379,2005.2364089192488,2004.9055155230653,2004.5747946863478,2004.244262806821,2003.9139363133693,2003.5838316231475,2003.2539650958518,2002.9243530086792,2002.5950115381831,2002.265956762414,2001.9372046833412,2001.6087712383212,2001.2806722787004,2000.952923545981,2000.625540708031,2000.298539446817,1999.9719355100267,1999.6457446799225,1999.3199827170388,1998.9946653720374,1998.6698084632837,1998.3454279284565,1998.0215398055584,1997.6981601753826,1997.375305103569,1997.0529905972644,1996.7312325836863,1996.4100469093748,1996.0894493556707,1995.7694556781248,1995.4500816605116,1995.1313431461174,1994.8132560288582,1994.4958362159953,1994.1790995701547,1993.8630618456616,1993.54773864962,1993.2331454321977,1992.9192974915138,1992.6062099951546,1992.2938980134509,1991.9823765422022,1991.6716605083548,1991.3617647732408,1991.0527041475793,1990.744493414989,1990.4371473404865,1990.130680643682,1989.8251079524932,1989.5204437743023,1989.2167024922583,1988.9138983749626,1988.612045603191,1988.3111583104003,1988.0112506171458,1987.712336651291,1987.414430558069,1987.117546504051,1986.821698662852,1986.526901152143,1986.2331679382019,1985.9405127802138,1985.648949245162,1985.3584907608472,1985.069150676203,1984.7809423143003,1984.4938790054666,1984.2079741045723,1983.9232410001991,1983.639693105134,1983.3573438310361,1983.0762065748593,1982.7962947320452,1982.5176217162,1982.2402009511736,1981.9640458379772,1981.6891697273734,1981.4155859021948,1981.1433075620866,1980.8723478220393,1980.6027197255135,1980.3344362624296,1980.0675103993165,1979.8019551122934,1979.537783383934,1979.2750081652302,1979.013642349313,1978.753698776809,1978.495190250927,1978.2381295358978,1977.9825293395852,1977.728402306228,1977.475761037168,1977.2246181208995,1976.9749861347104,1976.7268776179098,1976.4803050470796,1976.2352808173985,1975.9918172280138,1975.7499264917462,1975.5096207670992,1975.2709121715945,1975.0338127451948,1974.7983343954597,1974.564488892593,1974.3322879160057,1974.1017431000555,1973.8728660724757,1973.645668481836,1973.420161964949,1973.1963580627398,1972.9742681600405,1972.7539034716262,1972.5352750493375,1972.3183938062293,1972.103270552071,1971.8899160146345,1971.67834083541,1971.4685555608473,1971.2605706599595,1971.054396554084,1970.8500436052489,1970.6475220635525,1970.44684202305,1970.2480133934507,1970.051045883163,1969.8559490249283,1969.6627322379577,1969.471404866116,1969.2819761625437,1969.0944552426176,1968.9088510300048,1968.7251722095991,1968.5434272133098,1968.3636242630405,1968.1857714396253,1968.0098767115828,1967.8359479167966,1967.6639927567608,1967.4940188492337,1967.3260338031942,1967.1600452313044,1966.9960606970417,1966.8340876849406,1966.6741336487203,1966.516206087799,1966.3603125580692,1966.2064606145007,1966.0546577679286,1965.9049114917332,1965.7572292467617,1965.6116184887917,1965.4680866569136,1965.3266411671716,1965.187289426885,1965.0500388489538,1964.9148968251761,1964.7818706654696,1964.650967558584,1964.5221945766154,1964.3955586941138,1964.2710667889178,1964.1487256247203,1964.0285418441686,1963.9105219935936,1963.794672557467,1963.6809999559193,1963.5695105061388,1963.4602103898412,1963.3531056365466,1963.2482021238839,1963.1455056253492,1963.0450218937515,1962.9467567125935,1962.850715886581,1962.7569052025017,1962.6653303925223,1962.5759971092375,1962.4889109258588,1962.4040773838574,1962.3215020527634,1962.241190516111,1962.1631482871792,1962.0873807446012,1962.013893116641,1961.9426904922339,1961.873777863658,1961.807160190288,1961.742842427441,1961.6808294821824,1961.6211261476108,1961.5637371146206,1961.5086670583014,1961.4559206995725,1961.4055028010785,1961.3574181375072,1961.3116714813136,1961.2682676074924,1961.2272112894134,1961.1885072569091,1961.1521601300046,1961.118174372105,1961.0865542744089,1961.057303963838,1961.0304274462476,1961.005928659765,1960.9838114684724,1960.9640795980579,1960.9467366002557,1960.9317858988206,1960.9192308715935,1960.9090748863018,1960.9013212811672,1960.895973341439,1960.8930342905203,1960.8925072871614,1960.8943954303477,1960.8987017706636,1960.9054293114966,1960.9145809834502,1960.9261596065683,1960.9401678772929,1960.9566083834018,1960.9754836164927,1960.996795967415,1961.020547700586,1961.0467408921857,1961.0753773476422,1961.1064585621077,1961.139985763683,1961.175959994765,1961.2143821540233,1961.2552529884574,1961.2985730890903,1961.344342929247,1961.3925629263458,1961.4432334789276,1961.4963549695888,1961.5519277492347,1961.609952093324,1961.6704281467364,1961.7333559152814,1961.7987353058777,1961.8665661614418,1961.936848273851,1962.0095813835046,1962.0847651545237,1962.1623991316792,1962.2424827135335,1962.3250151559928,1962.4099955884215,1962.4974230228433,1962.5872963537968,1962.67961435452,1962.7743756694717,1962.8715788084571,1962.971222157373,1963.0733040027299,1963.1778225431785,1963.2847758705889,1963.3941619332631,1963.505978504407,1963.6202231635696,1963.736893287396,1963.855986045236,1963.9774983979798,1964.1014271037766,1964.2277687290111,1964.356519666163,1964.4876761772082,1964.6212344483665,1964.7571906006106,1964.8955406530952,1965.036280495905,1965.179405899297,1965.3249125318575,1965.4727959465886,1965.6230515381765,1965.7756745189056,1965.9306599408083,1966.0880027340286,1966.2476977090625,1966.409739522061,1966.5741226433665,1966.7408413382032,1966.9098896457294,1967.081261355237,1967.2549499851727,1967.43094878446,1967.6092507837102,1967.7898488679177,1967.9727357947786,1968.1579041537573,1968.345346331631,1968.5350545120996,1968.7270206932315,1968.9212367121977,1969.1176942708034,1969.316384946804,1969.5173001820804,1969.7204312525453,1969.9257692246426,1970.1333049089972,1970.3430288274353,1970.554931188511,1970.7690018715407,1970.9852304479457,1971.2036062342297,1971.4241183234376,1971.6467555691318,1971.871506543795,1972.0983594984384,1972.327302333146,1972.5583225919524,1972.791407501522,1973.026544038214,1973.2637189817478,1973.5029189416693,1973.7441303631153,1973.987339511872,1974.232532448061,1974.479695006708,1974.7288127896616,1974.9798711729136,1975.2328553467698,1975.48775037021,1975.7445411822277,1976.0032125624446,1976.2637490823813,1976.5261350696976,1976.790354586216,1977.0563914120182,1977.3242290258795,1977.5938505808213,1977.8652388804637,1978.1383763695674,1978.4132451501234,1978.689827014877,1978.9681034812465,1979.2480558167094,1979.5296650471407,1979.8129119407945,1980.0977769841618,1980.3842403801327,1980.672282068461,1980.9618817413505,1981.2530188444246,1981.5456725720076,1981.8398218619886,1982.135445391082,1982.4325215680487,1982.7310285183903,1983.030944064568,1983.332245717574,1983.634910681476,1983.9389158494323,1984.2442377692719,1984.5508525977023,1984.8587360934596,1985.1678636506156,1985.4782103334983,1985.7897509128238,1986.1024599148004,1986.4163116694147,1986.7312803453228,1987.0473399563323,1987.3644643204086,1987.6826269906824,1988.0018012047044,1988.3219598641233,1988.6430755309907,1988.965120437449,1989.2880665063672,1989.611885375215,1989.9365484166885,1990.2620267499944,1990.5882912436132,1990.915312513185,1991.2430609112782,1991.5715065110662,1991.9006190875664,1992.230368085485,1992.5607225809717,1992.89165127299,1993.2231225059181,1993.5551042876896,1993.8875642896687,1994.2204698481473,1994.5537879930205,1994.8874854959342,1995.2215289151857,1995.5558846540064,1995.890519028178,1996.2253982833363,1996.5604885570958,1996.8957558403615,1997.2311659508118,1997.566684514493,1997.9022769798714,1998.237908660283,1998.5735447690813,1998.9091504450469,1999.2446907814492,1999.580130851456,1999.9154357229963,2000.2505704557698,2000.5855000653978,2000.9201894827045,2001.2546035758855,2001.5887072294788,2001.9224654018328,2002.2558431363268,2002.5888055652902,2002.9213179402948,2003.2533456807093,2003.584854400751,2003.9158098963762,2004.2461781058037,2004.5759250554338,2004.9050168041522,2005.233419415221,2005.5610989719962,2005.888021611903,2006.2141535389158,2006.539461010886,2006.863910326878,2007.1874678254626,2007.5100998899138,2007.8317729590917,2008.152453540765,2008.472108226563,2008.79070372154,2009.108206880643,2009.4245847147574,2009.7398043643043,2010.0538330785232,2010.366638217889,2010.6781872638394,2010.9884478151218,2011.2973875711648,2011.6049743369615,2011.911176091253,2012.2159610887995,2012.5192979103242,2012.8211554471472,2013.1215028643237,2013.4203095382343,2013.7175449872868,2014.0131788764686,2014.3071810941244,2014.5995218117068,2014.8901714972847,2015.1791009112108,2015.4662810944988,2015.7516833523416,2016.035279246162,2016.3170406039308,2016.5969395438865,2016.8749485019177,2017.1510402553056,2017.4251879318745,2017.6973649972442,2017.9675452323606,2018.235702721991,2018.5018118566215,2018.7658473376143,2019.0277841848108,2019.2875977413098,2019.545263657162,2019.8007578556305,2020.0540565083954,2020.3051360265895,2020.5539730632127,2020.8005445358456,2021.0448276635757,2021.2867999958264,2021.5264394351136,2021.7637242594121,2021.9986331270914,2022.2311450627985,2022.461239435648,2022.6888959191688,2022.9140944492406,2023.1368152388436,2023.3570388455687,2023.574746224131,2023.7899187460382,2024.0025381957416,2024.2125867189325,2024.4200467355563,2024.624900892603,2024.8271320984643,2025.0267235921963,2025.2236589730423,2025.4179221825025,2025.6094974953471,2025.79836956055,2025.98452345157,2026.1679446359142,2026.3486188712827,2026.5265321386553,2026.7016706642414,2026.874020975127,2027.0435699143652,2027.2103046114585,2027.374212463406,2027.535281159587,2027.6934987314114,2027.8488535918455,2028.0013345546697,2028.1509308472655,2028.2976321343738,2028.4414285309185,2028.5823105426307,2028.7202689490819,2028.8552947358264,2028.987379130021,2029.1165136737925,2029.2426902363645,2029.365900961693,2029.486138234784,2029.6033947137576,2029.7176633939812,2029.8289376478795,2029.937211230278,2030.042478265917,2030.1447332138546,2030.2439708189108,2030.3401860899073,2030.4333743099758,2030.523531048918,2030.6106521658448,2030.694733811433,2030.775772438718,2030.8537648224283,2030.92870808118,2031.0005996968507,2031.0694375161202,2031.1352197155197,2031.1979447514868,2031.2576113485795,2031.3142185286847,2031.3677656382208,2031.4182523607528,2031.4656787215129,2031.5100450740892,2031.5513520725315,2031.5896006625412,2031.6247921201527,2031.6569281017933,2031.686010626203,2031.7120419926785,2031.7350247257061,2031.7549615853427,2031.7718556092595,2031.7857101515617,2031.7965289086446,2031.8043159308686,2031.809075620867,2031.810812730654,,,,,,,,,,,,,,,,,,,,,,,,,,,,,,,,,,,,,,,,,,,,,,,,,,,,,,,,,,,,,,,,,,,,,,,,,,,,,,,,,,,,,,,,,,,,,,,,,,,,,,,,,,,,,,,,,,,,,,,,,,,,,,,,,,,,,,,,,,,,,,,,,,,,,,,,,,,,,,,,,,,,,,,,,,,,,,,,,,,,,,,,,,,,,,,,,,,,,,,,,,,,,,,,,,,,,,,,,,,,,,,,,,,,,,,,,,,,,,,,,,,,,,,,,,,,,,,,,,,,,,,,,,,,,,,,,,,,,,,,,,,,,,,,,,,,,,,,,,,,,,,,,,,,,,,,,,,,,,,,,,,,,,,,,,,,,,,,,,,,,,,,,,,,,,,,,,,,,,,,,,,,,,,,,,,,,,,,,,,,,,,,,,,,,,,,,,,,,,,,,,,,,,,,,,,,,,,,,,,,,,,,,,,,,,,,,,,,,,,,,,,,,,,,,,,,,,,,,,,,,,,,,,,,,,,,,,,,,,,,,,,,,,,,,,,,,,,,,,,,,,,,,,,,,,,,,,,,,,,,,,,,,,,,,,,,,,,,,,,,,,,,,,,,,,,,,,,,,,,,,,,,,,,,,,,,,,,,,,,,,,,,,,,,,,,,,,,,,,,,,,,,,,,,,,,,,,,,,,,,,,,,,,,,,,,,,,,,,,,,,,,,,,,,,,,,,,,,,,,,,,,,,,,,,,,,,,,,,,,,,,,,,,,,,,,,,,,,,,,,,,,,,,,,,,,,,,,,,,,,,,,,,,,,,,,,,,,,,,,,,,,,,,,,,,,,,,,,,,,,,,,,,,,,,,,,,,,,,,,,,,,,,,,,,,,,,,,,,,,,,,,,,,,,,,,,,,,,,,,,,,,,,,,,,,,,,,,,,,,,,,,,,,,,,,,,,,,,,,,,,,,,,,,,,,,,,,,,,,,,,,,,,,,,,,,,,,,,,,,,,,,,,,,,,,,,,,,,,,,,,,,,,,,,,,,,,,,,,,,,,,,,,,,,,,,,,,,,,,,,,,,,,,,,,,,,,,,,,,,,,,,,,,,,,,,,,,,,,,,,,,,,,,,,,,,,,,,,,,,,,,,,,,,,,,,,,,,,,,,,,,,,,,,,,,,,,,,,,,,,,,,,,,,,,,,,,,,,,,,,,,,,,,,,,,,,,,,,,,,,,,,,,,,,,,,,,,,,,,,,,,,,,,,,,,,,,,,,,,,,,,,,,,,,,,,,,,,,,,,,,,,,,,,,,,,,,,,,,,,,,,,,,,,,,,,,,,,,,,,,,,,,,,,,,,,,,,,,,,,,,,,,,,,,,,,,,,,,,,,,,,,,,,,,,,,,,,,,,,,,,,,,,,,,,,,,,,,,,,,,,,,,,,,,,,,,,,,,,,,,,,,,,,,,,,,,,,,,,,,,,,,,,,,,,,,,,,,,,,,,,
2061.8447200756414,2061.84210635432,2061.8367195575847,2061.8285753195296,2061.81768947006,2061.804078036163,2061.787757246845,2061.7687435405246,2061.7470535537777,2061.7227040577636,2061.695711866675,2061.6660937957017,2061.633866679058,2061.599047390459,2061.5616528392725,2061.521699949245,2061.479205621416,2061.4341866905606,2061.3866599149187,2061.3366420377474,2061.284149887842,2061.2292004399055,2061.171810819759,2061.111998299016,2061.0497803031653,2060.985174414801,2060.9181983366966,2060.8488698240667,2060.7772066407792,2060.7032265593994,2060.6269473722023,2060.54838687705,2060.467562841775,2060.3844929726406,2060.299194884032,2060.2116860734345,2060.1219839414603,2060.030105852059,2059.9360691647435,2059.839891197455,2059.7415891699698,2059.641180219126,2059.5386814822305,2059.4341101512614,2059.327483450411,2059.218818581179,2059.1081326954795,2058.9954429036457,2058.880766281235,2058.7641198515053,2058.645520553294,2058.524985215811,2058.402530546831,2058.2781731286077,2058.1519294174514,2058.0238157571125,2057.8938484299097,2057.7620437330256,2057.628418012617,2057.4929876090882,2057.3557687585594,2057.2167775369453,2057.076029860846,2056.933541497781,2056.789328061827,2056.643405006836,2056.495787637108,2056.346491133087,2056.1955305693577,2056.0429209168333,2055.888677038866,2055.732813688991,2055.5753455111194,2055.416287048256,2055.255652774356,2055.0934571448543,2054.9297146415256,2054.7644398007196,2054.597647214019,2054.429351479004,2054.2595671301447,2054.0883086269137,2053.915590402353,2053.741426898268,2053.5658325505265,2053.3888217540784,2053.2104088494916,2053.0306081346484,2052.849433882539,2052.666900366364,2052.4830218822167,2052.2978127307883,2052.111287162984,2051.9234593397396,2051.7343433198444,2051.5439530566973,2051.352302397913,2051.1594050881777,2050.9652747879422,2050.769925138369,2050.5733698356216,2050.3756226077885,2050.1766971005327,2049.9766068020995,2049.7753650681407,2049.5729851907663,2049.369480443668,2049.16486409236,2048.9591493946855,2048.7523496049885,2048.544477976664,2048.335547752141,2048.1255721431335,2047.9145643190175,2047.70253741103,2047.4895045314922,2047.2754788141328,2047.0604734657813,2046.8445017925046,2046.6275771782828,2046.4097130292046,2046.190922700226,2045.9712194231504,2045.7506162780232,2045.5291262387848,2045.306762245293,2045.0835372112547,2044.8594639664339,2044.6345552134724,2044.4088235334023,2044.182281405362,2043.9549411999471,2043.726815148225,2043.497915322113,2043.2682536427558,2043.0378419096,2042.8066918473253,2042.574815159271,2042.342223552468,2042.108928711555,2041.8749422580947,2041.6402757618255,2041.4049407973562,2041.1689489749015,2040.9323119288267,2040.6950413110656,2040.457148821056,2040.2186462454176,2039.9795454497578,2039.7398583250435,2039.49959675264,2039.2587726180368,2039.0173978460828,2038.7754844236447,2038.5330444044216,2038.2900899080796,2038.0466331181751,2037.802686274805,2037.5582616567137,2037.3133715577228,2037.068028272494,2036.822244095685,2036.5760313332787,2036.3294023350134,2036.0823695402034,2035.8349455004372,2035.5871428560265,2035.3389742897384,2035.0904524991934,2034.8415901952283,2034.5924001027008,2034.3428949466863,2034.093087429347,2033.8429902137002,2033.5926159187486,2033.341977135304,2033.0910864904977,2032.8399567277095,2032.5886007049521,2032.3370313125174,2032.0852614019855,2031.8333037468813,2031.581171018343,2031.3288758046085,2031.0764306698582,2030.8238481956123,2030.5711409831804,2030.3183216439425,2030.0654028042338,2029.8123971240268,2029.5593173074974,2029.3061760916855,2029.052986222172,2028.7997604320014,2028.5465114295323,2028.2932518911541,2028.039994451572,2027.7867516997703,2027.5335362066223,2027.280360577654,2027.0272374826818,2026.774179635548,2026.521199755192,2026.2683105591782,2026.015524791711,2025.7628552447495,2025.5103147523453,2025.2579161768665,2025.0056724138822,2024.753596414898,2024.5017012056283,2024.2499998933106,2023.9985056756457,2023.7472318635273,2023.4961919122918,2023.24539943187,2022.9948681494673,2022.7446118556095,2022.4946444025231,2022.2449797556626,2021.9956320131846,2021.746615326831,2021.4979437761544,2021.249631314957,2021.0016918037395,2020.7541390494493,2020.5069868257535,2020.2602488839764,2020.013938943344,2019.7680706633757,2019.5226576260068,2019.2777133384027,2019.0332512544321,2018.7892848233198,2018.545827553712,2018.3028930428497,2018.0604949363606,2017.8186468580245,2017.5773623837583,2017.336655066717,2017.0965384741571,2016.857026238902,2016.618132107152,2016.3798699059585,2016.1422534388846,2015.9052964165512,2015.6690124662944,2015.4334151673763,2015.1985180492752,2014.9643345538589,2014.7308780145954,2014.4981616844461,2014.2661987941794,2014.0350026106819,2013.8045864810636,2013.5749638536329,2013.3461482720897,2013.1181533579472,2012.8909928006572,2012.664680358279,2012.4392298557077,2012.2146551670753,2011.9909701811052,2011.7681887555075,2011.5463246721795,2011.3253916212068,2011.1054032359766,2010.8863731542526,2010.6683150553051,2010.4512426641734,2010.235169757543,2010.0201102012645,2009.806078002469,2009.5930873271932,2009.3811524794553,2009.170287867745,2008.9605079459488,2008.7518271400666,2008.5442598268544,2008.3378203700697,2008.1325231567112,2007.9283826162082,2007.7254132331152,2007.5236295451907,2007.323046127674,2007.1236775812067,2006.925538528268,2006.7286436104082,2006.5330074814242,2006.3386447984924,2006.145570211268,2005.953798338804,2005.7633437448385,2005.5742209487769,2005.3864444699338,2005.2000288677086,2005.014988776885,2004.8313389344003,2004.6490941529582,2004.4682692483825,2004.288878987243,2004.1109380746434,2003.9344611537617,2003.759462800514,2003.5859575149627,2003.413959714745,2003.2434837297062,2003.074543800583,2002.907154094715,2002.7413287351362,2002.5770818304668,2002.414427518183,2002.253380015588,2002.0939536338483,2001.9361627518576,2001.7800217986085,2001.6255452708508,2001.4727477653457,2001.3216439912278,2001.1722487596364,2001.0245769753662,2000.8786436431108,2000.7344638680147,2000.5920528144281,2000.451425633407,2000.3125974157654,2000.1755831901455,2000.0403979385267,1999.9070566068515,1999.775574108337,1999.6459653223121,1999.5182450869565,1999.3924281948675,1999.268529413364,1999.1465635246564,1999.026545350589,1998.9084897457224,1998.7924115721473,1998.678325669416,1998.5662468273022,1998.4561897715296,1998.3481691653114,1998.2421996096589,1998.1382956181171,1998.0364715789092,1997.9367417507428,1997.8391202947114,1997.7436212960372,1997.650258751724,1997.5590465448045,1997.4699984368322,1997.3831280806446,1997.298449033113,1997.215974761792,1997.1357186608864,1997.0576940972257,1996.9819144748885,1996.9083932608628,1996.837143927927,1996.7681798662747,1996.7015143693736,1996.6371606977027,1996.575132129493,1996.5154419615533,1996.4581034922242,1996.4031300168995,1996.3505348373226,1996.3003312578865,1996.2525325393185,1996.2071518385544,1996.1642022106716,1996.1236966724753,1996.085648250245,1996.0500699812153,1996.0169748919136,1995.9863759675577,1995.9582861202184,1995.932718177253,1995.9096849074529,1995.889199066649,1995.8712734254511,1995.8559207722187,1995.8431538985742,1995.8329855532488,1995.8254283727902,1995.820494831319,1995.8181972219154,1995.8185476558401,1995.82155807756,1995.827240295985,1995.8356060282674,1995.8466669452037,1995.8604346898426,1995.8769208486085,1995.896136906178,1995.9180942437492,1995.9428041811107,1995.9702779971922,1996.0005268848683,1996.033561883027,1996.0693938731265,1996.1080336410555,1996.1494919182835,1996.1937793584846,1996.2409064885812,1996.2908836922302,1996.3437212298006,1996.3994292522505,1996.4580177845544,1996.5194966912627,1996.5838756452863,1996.6511641076183,1996.721371324481,1996.7945063536663,1996.8705781115493,1996.9495954164297,1997.031567017249,1997.1165015959182,1997.2044077233738,1997.2952938001986,1997.3891680560507,1997.4860386079022,1997.5859134898574,1997.6888005977544,1997.7947075927664,1997.9036418504265,1998.015610467649,1998.1306202745984,1998.2486778234156,1998.3697893773265,1998.4939609423336,1998.6211983333728,1998.7515072201636,1998.8848931365267,1999.0213614706117,1999.1609174364435,1999.3035660336811,1999.4493120179075,1999.5981598818512,1999.7501138520063,1999.9051779347287,2000.0633560000438,2000.2246518301372,2000.3890690972307,2000.556611303301,2000.7272817205894,2000.9010833475093,2001.0780188888746,2001.2580907653212,2001.4413011304148,2001.627651861368,2001.817144525393,2002.0097803610474,2002.2055602985067,2002.4044850106504,2002.6065549831972,2002.8117705860352,2003.0201321104546,2003.231639757671,2003.4462935993374,2003.664093529107,2003.885039217018,2004.109130087388,2004.3363653319861,2004.5667439357608,2004.80026467861,2005.036926112383,2005.2767265447596,2005.5196640462327,2005.7657364668098,2006.0149414425491,2006.2672763899063,2006.522738494379,2006.7813246881774,2007.0430316173267,2007.3078556123992,2007.5757926697759,2007.8468384385676,2008.120988203864,2008.3982368667178,2008.6785789342491,2008.9620085219053,2009.2485193629993,2009.538104834053,2009.830757992698,2010.126471605006,2010.42523815495,2010.7270498380217,2011.0318985292688,2011.339775741171,2011.650672615169,2011.964579948472,2012.2814882102973,2012.6013875215738,2012.9242676151557,2013.2501178045325,2013.5789269683462,2013.9106835430011,2014.2453755176896,2014.5829904444092,2014.9235154925914,2015.2669375341368,2015.613243183806,2015.9624187483037,2016.3144501270656,2016.6693227385865,2017.0270214901411,2017.3875307766973,2017.7508345138913,2018.1169161896469,2018.4857588910297,2018.8573452990292,2019.2316576756177,2019.6086778495705,2019.9883872075472,2020.3707667143624,2020.755796956773,2021.1434581592532,2021.5337301328088,2021.926592197811,2022.3220231668558,2022.7200013913064,2023.120504804571,2023.5235109446749,2023.9289969597735,2024.3369395649659,2024.7473149605487,2025.160098792042,2025.575266205137,2025.9927919359257,2026.4126503228092,2026.834815236442,2027.2592600242617,2027.6859575097785,2028.1148800092933,2028.545999325884,2028.9792867214646,2029.4147128941086,2029.852247968744,2030.291861495545,2030.7335224600738,2031.1771993019304,2031.6228599358221,2032.0704717896615,2032.5200018491414,2032.9714166580748,2033.4246822797747,2033.8797642843865,2034.3366277739399,2034.7952373992753,2035.255557345312,2035.717551308191,2036.1811825020256,2036.6464136928212,2037.1132072238654,2037.5815250228525,2038.0513286089947,2038.5225791143257,2038.9952373131084,2039.4692636362213,2039.9446181587587,2040.421260578697,2040.899150213809,2041.3782460168277,2041.8585065906,2042.339890203235,2042.8223547967518,2043.3058579579895,2043.7903568582697,2044.2758082263208,2044.762168401527,2045.2493934228748,2045.7374390614982,2046.2262607878986,2046.7158137407837,2047.2060527275453,2047.6969322478585,2048.1884065408085,2048.680429642966,2049.1729554204944,2049.6659375610884,2050.1593295521125,2050.6530846757796,2051.1471560217706,2051.641496499041,2052.1360588439725,2052.630795626092,2053.125659239991,2053.6206018846697,2054.1155755420677,2054.610531949507,2055.105422564834,2055.600198542112,2056.0948107231325,2056.589209661791,2057.0833457312315,2057.5771692906324,2058.0706308102026,2058.563680922343,2059.056270435481,2059.5483503320906,2060.0398717516973,2060.5307859487375,2061.021044235002,2061.5105979565706,2061.9993985449914,2062.4873976009317,2062.974546921834,2063.4607984658887,2063.946104326962,2064.4304167655205,2064.913688254166,2065.3958714582636,2065.8769191557185,2066.35678418435,2066.8354194598655,2067.312778040906,2067.788813220063,2068.2634786173417,2068.736728228191,2069.2085164058158,2069.6787978094185,2070.1475273524525,2070.614660163055,2071.080151573295,2071.543957158338,2072.0060327922483,2072.466334644983,2072.924819120561,2073.3814428244605,2073.8361626186584,2074.2889357269914,2074.739719816594,2075.1884730343118,2075.6351540127034,2076.079721848057,2076.5221360686874,2076.9623566304253,2077.400343939712,2077.8360588698115,2078.2694627551246,2078.700517372135,2079.129184912252,2079.5554279526423,2079.9792094400564,2080.4004926953658,2080.8192414363734,2081.2354198205176,2081.648992496115,2082.0599246333313,2082.4681819283946,2082.873730585512,2083.276537260664,2083.676568980671,2084.0737931040626,2084.4681773671664,2084.859689959835,2085.248299527752,2085.633975100108,2086.0166860432623,2086.39640209597,2086.773093441144,2087.1467307407142,2087.5172851242583,2087.8847281756216,2088.2490319414655,2088.6101689447055,2088.96811217241,2089.3228350405925,2089.6743113667344,2090.0225153581505,2090.3674216182276,2090.709005194473,2091.0472416557955,2091.3821071349157,2091.7135783038575,2092.0416323206537,2092.3662468012294,2092.687399822951,2093.0050699269846,2093.319236097546,2093.6298777399584,2093.936974704582,2094.240507350115,2094.5404565768968,2094.836803789641,2095.129530836662,2095.4186200079475,2095.7040540920907,2095.9858164133598,2096.263890809155,2096.5382615803032,2096.808913460046,2097.0758316090078,2097.339001621962,2097.5984095480067,2097.854041923342,2098.105885802042,2098.3539287767107,2098.59815898131,2098.8385650648006,2099.0751361412767,2099.3078617332285,2099.5367317217274,2099.7617363193554,2099.982866069936,2100.2001118559992,2100.413464892478,2100.6229167078523,2100.8284591338393,2101.030084317015,2101.227784736549,2101.4215531980267,2101.61138280458,2101.7972669495402,2101.9791993699796,2102.1571742148813,2102.3311860212366,2102.501229603756,2102.667299975435,2102.8293923436086,2102.9875021482317,2103.141625128983,2103.291757404166,2103.4378955167717,2103.5800364330953,2103.7181775186664,2103.8523165097345,2103.9824514872184,2104.108580864072,2104.230703392145,2104.348818184087,2104.4629247466323,2104.5730230167533,2104.679113369847,2104.7811965695237,2104.8792736999726,2104.9733461734163,2105.063415810615,2105.149484898274,2105.231556183184,2105.3096328213546,2105.383718281733,2105.4538162284452,2105.5199304521566,2105.5820648769195,2105.640223593823,2105.694410867082,2105.7446311109384,2105.7908888844427,2105.833188944681,2105.871536323964,2105.905936347409,2105.936394585622,2105.9629168106635,2105.985508980834,2106.004177244155,2106.018927965002,2106.029767757654,2106.036703482953,,,,,,,,,,,,,,,,,,,,,,,,,,,,,,,,,,,,,,,,,,,,,,,,,,,,,,,,,,,,,,,,,,,,,,,,,,,,,,,,,,,,,,,,,,,,,,,,,,,,,,,,,,,,,,,,,,,,,,,,,,,,,,,,,,,,,,,,,,,,,,,,,,,,,,,,,,,,,,,,,,,,,,,,,,,,,,,,,,,,,,,,,,,,,,,,,,,,,,,,,,,,,,,,,,,,,,,,,,,,,,,,,,,,,,,,,,,,,,,,,,,,,,,,,,,,,,,,,,,,,,,,,,,,,,,,,,,,,,,,,,,,,,,,,,,,,,,,,,,,,,,,,,,,,,,,,,,,,,,,,,,,,,,,,,,,,,,,,,,,,,,,,,,,,,,,,,,,,,,,,,,,,,,,,,,,,,,,,,,,,,,,,,,,,,,,,,,,,,,,,,,,,,,,,,,,,,,,,,,,,,,,,,,,,,,,,,,,,,,,,,,,,,,,,,,,,,,,,,,,,,,,,,,,,,,,,,,,,,,,,,,,,,,,,,,,,,,,,,,,,,,,,,,,,,,,,,,,,,,,,,,,,,,,,,,,,,,,,,,,,,,,,,,,,,,,,,,,,,,,,,,,,,,,,,,,,,,,,,,,,,,,,,,,,,,,,,,,,,,,,,,,,,,,,,,,,,,,,,,,,,,,,,,,,,,,,,,,,,,,,,,,,,,,,,,,,,,,,,,,,,,,,,,,,,,,,,,,,,,,,,,,,,,,,,,,,,,,,,,,,,,,,,,,,,,,,,,,,,,,,,,,,,,,,,,,,,,,,,,,,,,,,,,,,,,,,,,,,,,,,,,,,,,,,,,,,,,,,,,,,,,,,,,,,,,,,,,,,,,,,,,,,,,,,,,,,,,,,,,,,,,,,,,,,,,,,,,,,,,,,,,,,,,,,,,,,,,,,,,,,,,,,,,,,,,,,,,,,,,,,,,,,,,,,,,,,,,,,,,,,,,,,,,,,,,,,,,,,,,,,,,,,,,,,,,,,,,,,,,,,,,,,,,,,,,,,,,,,,,,,,,,,,,,,,,,,,,,,,,,,,,,,,,,,,,,,,,,,,,,,,,,,,,,,,,,,,,,,,,,,,,,,,,,,,,,,,,,,,,,,,,,,,,,,,,,,,,,,,,,,,,,,,,,,,,,,,,,,,,,,,,,,,,,,,,,,,,,,,,,,,,,,,,,,,,,,,,,,,,,,,,,,,,,,,,,,,,,,,,,,,,,,,,,,,,,,,,,,,,,,,,,,,,,,,,,,,,,,,,,,,,,,,,,,,,,,,,,,,,,,,,,,,,,,,,,,,,,,,,,,,,,,,,,,,,,,,,,,,,,,,,,,,,,,,,,,,,,,,,,,,,,,,,,,,,,,,,,,,,,,,,,,,,,,,,,,,,,,,,,,,,,,,,,,,,,,,,,,,,,,,,,,,,,,,,,,,,,,,,,
2042.0654814993572,2042.0625652895317,2042.0564533439685,2042.0471581359122,2042.0346924770215,2042.0190695324413,2042.0003028261567,2041.9784062374447,2041.953393978275,2041.9252805573437,2041.8940807603556,2041.859809661973,2041.822482663749,2041.7821155560182,2041.7387245883278,2041.69232649891,2041.642938467496,2041.5905780243313,2041.5352629774684,2041.477011376592,2041.4158414951207,2041.351771812329,2041.284820996703,2041.2150079112262,2041.1423516393725,2041.066871505441,2040.9885870815167,2040.9075181859344,2040.823684867556,2040.7371073799272,2040.6478061595064,2040.5558018039126,2040.461115046539,2040.363766742545,2040.2637778698772,2040.1611695388249,2040.055963016203,2039.9481797568496,2039.8378414140484,2039.7249698264325,2039.6095870069355,2039.491715145146,2039.3713766133326,2039.248593963962,2039.1233899195265,2038.9957873648198,2038.8658093440997,2038.7334790582643,2038.5988198592033,2038.4618552429504,2038.3226088436588,2038.1811044251592,2038.0373658753724,2037.891417221833,2037.7432826646743,2037.592986592992,2037.440553562275,2037.2860082499403,2037.1293754206213,2036.970679910129,2036.8099466211963,2036.647200527752,2036.4824666796167,2036.3157701938212,2036.147136234986,2035.976590003013,2035.8041567353973,2035.6298617075247,2035.4537302062006,2035.2757874833133,2035.0960587354746,2034.9145691408778,2034.7313439237553,2034.5464083896368,2034.3597879228867,2034.1715079716762,2033.9815940207957,2033.790071550681,2033.5969659996983,2033.4023027394223,2033.2061070633122,2033.008404186352,2032.8092192499762,2032.6085773298435,2032.406503444839,2032.2030225636506,2031.9981596089208,2031.7919394642474,2031.5843869901187,2031.3755270451322,2031.1653844962677,2030.9539842072606,2030.7413510196786,2030.5275097542958,2030.3124852327578,2030.096302294792,2029.8789858020382,2029.6605606345838,2029.441051681014,2029.220483824817,2028.9988819328285,2028.776270841244,2028.5526753432646,2028.3281202002777,2028.102630174144,2027.8762300404198,2027.648944551684,2027.420798377339,2027.1918160774978,2026.962022117854,2026.7314408841498,2026.5000966747423,2026.2680136842494,2026.0352159985594,2025.801727602829,2025.567572386241,2025.3327741321584,2025.097356503417,2024.8613430438486,2024.624757196039,2024.387622316652,2024.149961684459,2023.9117984978195,2023.6731558437675,2023.4340566468143,2023.1945236327665,2022.9545793132377,2022.7142459855809,2022.4735457685256,2022.2325006650008,2021.991132597777,2021.7494633891229,2021.5075147193654,2021.2653081187232,2021.0228649948403,2020.7802066526178,2020.5373542836146,2020.2943289392229,2020.0511515079027,2019.8078427025582,2019.5644230568428,2019.3209129299833,2019.077332515664,2018.8337018484754,2018.590040806712,2018.34636911436,2018.102706344301,2017.8590719312551,2017.6154852106872,2017.3719654743475,2017.1285320022832,2016.8852040522463,2016.6420008227312,2016.398941405869,2016.1560447423492,2015.9133296071743,2015.670814651402,2015.4285184629553,2015.186459569819,2014.9446563852182,2014.7031271649685,2014.461890002552,2014.2209628363664,2013.9803634496675,2013.7401094636136,2013.5002183331464,2013.2607073501747,2013.0215936520271,2012.7828942343683,2012.544625965733,2012.3068055971899,2012.0694497659165,2011.832575004047,2011.5961977694226,2011.3603344909475,2011.1250015883797,2010.8902154373477,2010.6559923124557,2010.4223483742016,2010.189299703361,2009.956862325629,2009.7250521960927,2009.4938851751808,2009.2633770496413,2009.0335435936831,2008.8044006041462,2008.5759638723757,2008.348249122014,2008.1212719585503,2007.895047843617,2007.6695920920001,2007.4449198978566,2007.221046376343,2006.997986587794,2006.7757555387686,2006.554368173358,2006.3338393523115,2006.1141838232347,2005.8954162025461,2005.677550974064,2005.460602500162,2005.2445850560478,2005.0295128705245,2004.815400122525,2004.6022609023416,2004.3901092065248,2004.1789589761877,2003.9688241206954,2003.759718492666,2003.5516558353736,2003.3446497386667,2003.1387136147587,2002.9338606959193,2002.7301040638065,2002.5274567006982,2002.3259315362557,2002.1255414784553,2001.926299431531,2001.7282183090417,2001.5313110404368,2001.3355905528695,2001.1410697331205,2000.9477614012796,2000.7556783051118,2000.5648331200944,2000.3752384457953,2000.1869067998093,1999.9998506202057,1999.8140822898765,1999.6296141685852,1999.4464585957946,1999.2646278638708,1999.0841341941175,1998.90498972254,1998.7272064945241,1998.55079648872,1998.3757716644468,1998.2021439932664,1998.0299254601202,1997.8591280457927,1997.6897636939493,1997.5218442712687,1997.3553815413586,1997.1903871544869,1997.0268726417637,1996.8648494129682,1996.7043287588256,1996.5453218605803,1996.387839819031,1996.2318936973509,1996.0774945513235,1995.9246534396837,1995.7733814247156,1995.6236895655363,1995.4755889040657,1995.3290904465243,1995.1842051453266,1995.040943886642,1994.899317480383,1994.7593366449044,1994.6210119835816,1994.4843539593476,1994.3493728813903,1994.216078910097,1994.084482075376,1993.954592306734,1993.8264194678036,1993.6999733815296,1993.5752638492586,1993.4523006673812,1993.3310936265204,1993.2116524936653,1993.0939869938902,1992.978106789627,1992.8640214611435,1992.75174051541,1992.6412734213247,1992.5326296347866,1992.4258185994108,1992.320849725327,1992.2177323346943,1992.1164755877323,1992.0170884440365,1991.919579688389,1991.8239579914489,1991.7302319639407,1991.6384101909484,1991.54850123577,1991.4605135926377,1991.3744556227955,1991.2903355566925,1991.2081615618886,1991.1279417894473,1991.0496843570234,1990.9733973140862,1990.8990886554109,1990.8267663795898,1990.7564385292758,1990.6881131863763,1990.6217984428931,1990.5575023640408,1990.4952329529744,1990.4349981333546,1990.376805757461,1990.3206636195657,1990.2665794433287,1990.214560846459,1990.1646153183463,1990.1167502268886,1990.07097284235,1990.0272903668815,1989.9857099624062,1989.9462387663202,1989.9088838925754,1989.873652423008,1989.8405513881075,1989.8095877420913,1989.7807683481078,1989.754099979249,1989.7295893199553,1989.7072429467128,1989.6870672929174,1989.6690686275153,1989.6532530604095,1989.6396265567755,1989.6281949371644,1989.618963863392,1989.6119388309035,1989.6071251805995,1989.6045281224124,1989.604152756436,1989.6060040863297,1989.6100870282469,1989.6164064221832,1989.6249670376294,1989.6357735475658,1989.6488304772854,1989.66414216497,1989.6817127380748,1989.701546104303,1989.7236459888168,1989.7480160083542,1989.7746597149035,1989.8035805760696,1989.834781929868,1989.8682669666846,1989.904038742868,1989.942100190655,1989.9824541037387,1990.0251031159237,1990.0700497057323,1990.1172962257465,1990.1668449201652,1990.2186979107053,1990.272857168691,1990.3293245017337,1990.3881015582494,1990.4491898356118,1990.5125906895087,1990.5783053436876,1990.646334889544,1990.7166802755532,1990.7893422995242,1990.864321609361,1990.9416187143563,1991.02123401554,1991.1031678473698,1991.1874204889818,1991.2739921072634,1991.362882667456,1991.4540918936439,1991.5476192888689,1991.643464168618,1991.7416257052507,1991.842102985394,1991.94489504663,1992.0500008841477,1992.157419448451,1992.2671496442726,1992.3791903201386,1992.493540228708,1992.6101979676228,1992.7291619422513,1992.8504303649313,1992.9740012683972,1993.0998725131076,1993.2280417864426,1993.3585066026988,1993.4912643115879,1993.6263121115908,1993.7636470572088,1993.9032660580892,1994.0451658671768,1994.1893430420776,1994.3357938873376,1994.4845144129367,1994.6355003191363,1994.7887470036296,1994.9442496051893,1995.102003057038,1995.2620020761026,1995.4242410905838,1995.5887141951014,1995.755415181286,1995.9243375987858,1996.095474775282,1996.2688197902373,1996.4443654547172,1996.6221043252756,1996.8020287295926,1996.9841307669437,1997.1684022859342,1997.3548348752033,1997.5434198744,1997.734148382303,1997.927011250323,1998.1219990638192,1998.3191021116354,1998.5183103511606,1998.7196133989353,1998.923000576015,1999.1284609780694,1999.3359835000274,1999.5455568087782,1999.757169315047,1999.970809162297,2000.186464210751,2000.40412199381,2000.6237696574192,2000.8453939286323,2001.068981140152,2001.2945172763584,2001.5219879832196,2001.7513785392368,2001.9826738389586,2002.2158584227304,2002.4509165242853,2002.6878320789667,2002.9265886901521,2003.1671696021547,2003.409557699891,2003.6537355223297,2003.8996852803937,2004.1473888744429,2004.396827893895,2004.647983577887,2004.9008367572608,2005.1553678302132,2005.4115567772894,2005.669383187725,2005.9288263028163,2006.1898650722646,2006.4524781817026,2006.7166440441044,2006.9823407883416,2007.2495462611216,2007.5182380329709,2007.7883933948776,2008.0599893459994,2008.3330025781152,2008.6074094491134,2008.8831859499808,2009.1603076916601,2009.438749914621,2009.7184874988263,2009.9994949663876,2010.2817464756918,2010.5652157952356,2010.8498762632494,2011.135700763949,2011.4226617354254,2011.7107311929433,2011.9998807465531,2012.290081608146,2012.5813045972864,2012.8735201579905,2013.1666983742812,2013.460808948818,2013.7558211494686,2014.0517037785926,2014.3484251958762,2014.6459533695602,2014.9442559167076,2015.243300121964,2015.5430529413009,2015.8434809923665,2016.1445505342826,2016.4462274413522,2016.7484771767618,2017.051264789,2017.3545549581772,2017.6583120707385,2017.9625002645578,2018.2670834326466,2018.5720252114413,2018.8772889581371,2019.182837722335,2019.4886342359466,2019.7946409233832,2020.1008199125527,2020.4071330422046,2020.7135418725206,2021.0200077009767,2021.326491579018,2021.6329543242684,2021.939356532742,2022.245658597139,2022.5518207292002,2022.8578029800328,2023.163565255568,2023.4690673356733,2023.7742688977264,2024.0791295276158,2024.3836087149198,2024.6876658582296,2024.9912603106427,2025.2943514427022,2025.5968986566556,2025.8988613479733,2026.2001988839086,2026.5008706453577,2026.8008361003644,2027.1000548443626,2027.3984865966074,2027.6960911941744,2027.9928286103097,2028.2886589792745,2028.5835425879275,2028.8774398356675,2029.1703112085827,2029.462117291337,2029.7528188034066,2030.0423766442473,2030.330751935631,2030.6179060432985,2030.90380057184,2031.1883973466047,2031.4716583956153,2031.7535459355495,2032.0340223739586,2032.313050348009,2032.59059277865,2032.8666128817858,2033.141074133205,2033.413940244475,2033.6851751814468,2033.9547432030536,2034.2226088838945,2034.4887371145123,2034.7530931057404,2035.0156424234908,2035.2763510377508,2035.535185337109,2035.792112104747,2036.0470984883607,2036.3001119640062,2036.5511202991484,2036.800091555886,2037.046994133141,2037.2917967966862,2037.5344686763274,2037.7749792509246,2038.0132983419485,2038.2493961167884,2038.4832430920728,2038.714810133355,2038.9440684613035,2039.170989681033,2039.3955458268674,2039.6177093949475,2039.8374533624633,2040.0547512024418,2040.2695768823203,2040.481904846307,2040.6917100062788,2040.898967758253,2041.103654005776,2041.3057451520847,2041.5052180626703,2041.7020500347553,2041.8962187826094,2042.0877024265358,2042.2764794851184,2042.4625288723573,2042.6458299004992,2042.8263622950592,2043.0041062163502,2043.1790422680485,2043.3511514903605,2043.5204153523955,2043.6868157494248,2043.8503349989446,2044.0109558282347,2044.1686613562574,2044.3234350913986,2044.4752609681736,2044.6241234005902,2044.7700072957668,2044.9128980241626,2045.0527813959084,2045.1896436663726,2045.3234715526978,2045.4542522377808,2045.5819733604785,2045.7066230058338,2045.8281896989718,2045.9466624042902,2046.0620305409,2046.1742840102547,2046.2834132096034,2046.3894090150316,2046.492262751543,2046.5919661810103,2046.688511511652,2046.7818914103666,2046.8720990094089,2046.9591279078134,2047.0429721667501,2047.1236262992236,2047.2010852549226,2047.2753444038747,2047.3463995253937,2047.4142468019181,2047.478882820984,2047.5403046007505,2047.5985096325853,2047.6534959090666,2047.7052619276624,2047.7538066790123,2047.799129617382,2047.8412306205869,2047.8801099742811,2047.9157684073878,2047.9482071474285,2047.9774279316516,2048.0034329711198,2048.026224916845,2048.0458068405524,2048.0621822126227,2048.075354871132,2048.0853289896927,2048.092109070879,2048.0956999932214,,,,,,,,,,,,,,,,,,,,,,,,,,,,,,,,,,,,,,,,,,,,,,,,,,,,,,,,,,,,,,,,,,,,,,,,,,,,,,,,,,,,,,,,,,,,,,,,,,,,,,,,,,,,,,,,,,,,,,,,,,,,,,,,,,,,,,,,,,,,,,,,,,,,,,,,,,,,,,,,,,,,,,,,,,,,,,,,,,,,,,,,,,,,,,,,,,,,,,,,,,,,,,,,,,,,,,,,,,,,,,,,,,,,,,,,,,,,,,,,,,,,,,,,,,,,,,,,,,,,,,,,,,,,,,,,,,,,,,,,,,,,,,,,,,,,,,,,,,,,,,,,,,,,,,,,,,,,,,,,,,,,,,,,,,,,,,,,,,,,,,,,,,,,,,,,,,,,,,,,,,,,,,,,,,,,,,,,,,,,,,,,,,,,,,,,,,,,,,,,,,,,,,,,,,,,,,,,,,,,,,,,,,,,,,,,,,,,,,,,,,,,,,,,,,,,,,,,,,,,,,,,,,,,,,,,,,,,,,,,,,,,,,,,,,,,,,,,,,,,,,,,,,,,,,,,,,,,,,,,,,,,,,,,,,,,,,,,,,,,,,,,,,,,,,,,,,,,,,,,,,,,,,,,,,,,,,,,,,,,,,,,,,,,,,,,,,,,,,,,,,,,,,,,,,,,,,,,,,,,,,,,,,,,,,,,,,,,,,,,,,,,,,,,,,,,,,,,,,,,,,,,,,,,,,,,,,,,,,,,,,,,,,,,,,,,,,,,,,,,,,,,,,,,,,,,,,,,,,,,,,,,,,,,,,,,,,,,,,,,,,,,,,,,,,,,,,,,,,,,,,,,,,,,,,,,,,,,,,,,,,,,,,,,,,,,,,,,,,,,,,,,,,,,,,,,,,,,,,,,,,,,,,,,,,,,,,,,,,,,,,,,,,,,,,,,,,,,,,,,,,,,,,,,,,,,,,,,,,,,,,,,,,,,,,,,,,,,,,,,,,,,,,,,,,,,,,,,,,,,,,,,,,,,,,,,,,,,,,,,,,,,,,,,,,,,,,,,,,,,,,,,,,,,,,,,,,,,,,,,,,,,,,,,,,,,,,,,,,,,,,,,,,,,,,,,,,,,,,,,,,,,,,,,,,,,,,,,,,,,,,,,,,,,,,,,,,,,,,,,,,,,,,,,,,,,,,,,,,,,,,,,,,,,,,,,,,,,,,,,,,,,,,,,,,,,,,,,,,,,,,,,,,,,,,,,,,,,,,,,,,,,,,,,,,,,,,,,,,,,,,,,,,,,,,,,,,,,,,,,,,,,,,,,,,,,,,,,,,,,,,,,,,,,,,,,,,,,,,,,,,,,,,,,,,,,,,,,,,,,,,,,,,,,,,,,,,,,,,,,,,,,,,,,,,,,,,,,,,,,,,,,,,,,,,,,,,,,,,,,,,,,,,,,,,,,,,,,,,,,,,,,,,,,,,,,,,,,,,,,,,,,,,,,,,,,,,,,,,,,,,,,,,,,,,,,,,,,,,,,,,,,,,,,,,,,,,,,,,,,,,,,,,,,,,,,,,,,,,,,,,,,,,,,,,,,,,,,,,,,,,,,,,,,,,,,,,,,,
2025.1124236485878,2025.111560911444,2025.1083789330758,2025.102882878321,2025.095078203029,2025.0849705818798,2025.0725658548804,2025.0578700059273,2025.040889164916,2025.0216296402928,2025.0000979719082,2024.9763009717137,2024.9502457421574,2024.9219396718768,2024.8913903936727,2024.8586057226203,2024.823593627054,2024.7863622397365,2024.746919884456,2024.7052751269828,2024.661436848353,2024.6154143019403,2024.5672171401093,2024.516855405996,2024.4643394632262,2024.4096798911623,2024.352887430068,2024.2939729899822,2024.232947674214,2024.1698228052844,2024.104609950477,2024.037320917379,2023.9679677206307,2023.8965625531496,2023.8231177671082,2023.747645869528,2023.6701595681955,2023.5906718565418,2023.5091960502527,2023.4257457131346,2023.3403345326822,2023.2529762670677,2023.1636847769337,2023.0724740523326,2022.979358184906,2022.884351322631,2022.78746767367,2022.6887215585139,2022.5881274446897,2022.4856999315793,2022.3814537263245,2022.2754036753245,2022.1675648436224,2022.0579525699584,2021.9465824719325,2021.8334704244025,2021.7186325196349,2021.6020850193538,2021.4838443234344,2021.363926958083,2021.2423495628111,2021.1191288603775,2020.9942816174137,2020.8678246200682,2020.7397746715726,2020.61014860645,2020.4789633286712,2020.3462358644288,2020.2119833869247,2020.0762231851809,2019.938972601214,2019.8002489789847,2019.6600696381058,2019.518451862572,2019.3754128955836,2019.230969936003,2019.0851401376606,2018.9379406119144,2018.7893884269745,2018.6395005962816,2018.4882940754135,2018.3357858117438,2018.1819928346804,2018.0269323126438,2017.8706215467632,2017.713077923196,2017.5543188330003,2017.3943615798446,2017.233223326266,2017.0709210947084,2016.9074718050838,2016.7428923488526,2016.5771996813708,2016.4104108619065,2016.2425429914251,2016.0736130972314,2015.9036380577845,2015.7326345867564,2015.5606192418418,2015.3876084506182,2015.2136185396557,2015.038665725903,2014.8627660727834,2014.6859354738838,2014.5081897121142,2014.3295445419976,2014.1500156827096,2013.9696187238956,2013.7883690704418,2013.606281998012,2013.4233727520013,2013.239656574683,2013.0551486540592,2012.8698640788018,2012.6838178309308,2012.4970248036504,2012.3094998528659,2012.1212578698012,2011.9323138146733,2011.742682671257,2011.55237937346,2011.3614188000633,2011.169815839247,2010.9775854267489,2010.7847425000477,2010.59130190873,2010.3972783524496,2010.2026863623048,2010.007540318326,2009.8118545278242,2009.6156433394463,2009.4189212061124,2009.2217026814226,2009.0240023957786,2008.8258350179044,2008.6272152098784,2008.4281576219282,2008.2286769286115,2008.0287878499876,2007.8285051228897,2007.6278434462342,2007.4268174449953,2007.2254416621752,2007.0237305690362,2006.8216986021093,2006.6193602213043,2006.4167299599058,2006.213822454287,2006.01065244198,2005.8072347013235,2005.6035839578453,2005.3997148304052,2005.1956418308948,2004.991379372458,2004.7869417618886,2004.5823431981182,2004.377597818982,2004.1727197849063,2003.9677233325758,2003.762622772611,2003.5574324588474,2003.3521667507193,2003.1468399784828,2002.9414664344054,2002.736060412641,2002.5306362624956,2002.3252083783996,2002.11979112943,2001.9143988196677,2001.7090457325355,2001.5037462027265,2001.298514615913,2001.093365336646,2000.8883126484243,2000.6833707290605,2000.478553650795,2000.273875433558,2000.0693501383955,1999.8649919187003,1999.6608149838085,1999.456833517155,1999.253061612685,1999.049513245749,1998.8462022740202,1998.6431424797927,1998.4403476398668,1998.237831582044,1998.0356082144376,1997.8336915397704,1997.6320956660174,1997.4308347996046,1997.2299231818013,1997.029374984542,1996.8292042508742,1996.6294249206019,1996.4300509021798,1996.2310961454148,1996.0325746971266,1995.834500729216,1995.6368885375184,1995.4397525126626,1995.2431070683235,1995.0469665544633,1994.8513452326424,1994.6562573174563,1994.4617170049908,1994.2677384428462,1994.0743356814985,1993.8815226788051,1993.689313356841,1993.497721651837,1993.306761545856,1993.1164470948129,1992.926792439452,1992.7378117968447,1992.5495194522903,1992.36192975973,1992.175057135261,1991.9889160194061,1991.8035208178753,1991.618885865042,1991.4350254263647,1991.2519537198705,1991.069684941691,1990.8882332895666,1990.7076129628101,1990.5278381099324,1990.3489227454252,1990.1708806973745,1989.9937255992907,1989.8174708969436,1989.642129860062,1989.467715613905,1989.2942412134303,1989.1217197417945,1988.950164356922,1988.7795882370406,1988.610004478745,1988.4414260429255,1988.2738657623618,1988.1073363639136,1987.9418504931398,1987.7774207360706,1987.6140596056757,1987.4517794966816,1987.2905926671572,1987.130511289469,1986.971547538963,1986.8137136534247,1986.657021948717,1986.50148481859,1986.3471147308255,1986.193924219731,1986.0419258774007,1985.8911323461919,1985.7415563115978,1985.5932104890258,1985.4461075975844,1985.3002603172315,1985.1556812402307,1985.0123828481608,1984.8703775327351,1984.7296776360859,1984.590295471159,1984.4522433173536,1984.3155334056048,1984.1801778864165,1984.0461887865254,1983.913577987061,1983.782357228877,1983.65253811747,1983.5241321096307,1983.3971504919732,1983.2716043736532,1983.1475046953074,1983.0248622517763,1982.9036877501158,1982.7839918923466,1982.6657854281734,1982.549079164686,1982.4338839484644,1982.3202106038573,1982.2080698391972,1982.0974721777566,1981.9884279308876,1981.8809471922477,1981.775039842971,1981.6707155641313,1981.5679838520352,1981.4668540326938,1981.3673352754722,1981.2694366152482,1981.1731669911958,1981.078535302598,1980.9855504678942,1980.894221453694,1980.8045572550948,1980.7165668557047,1980.6302592119953,1980.5456432660435,1980.4627279602926,1980.381522246215,1980.3020350820111,1980.224275397434,1980.1482520346642,1980.0739737196047,1980.0014490976703,1979.9306867805212,1979.8616953043409,1979.7944830102022,1979.7290579698658,1979.6654280162384,1979.6036008123629,1979.5435838664373,1979.48538448921,1979.4290097655646,1979.3744665796455,1979.3217616728355,1979.270901704155,1979.2218932980727,1979.1747430716125,1979.1294576444095,1979.086043643072,1979.044507701476,1979.004856456991,1978.9670965450682,1978.9312345889496,1978.897277187742,1978.8652309166494,1978.8351023393652,1978.8068980135545,1978.7806244756318,1978.7562882182253,1978.7338956887231,1978.7134533093124,1978.6949674799648,1978.6784445290712,1978.663890641345,1978.651311836833,1978.640714006306,1978.6321029332498,1978.625484259853,1978.6208634221498,1978.6182456013773,1978.6176357037184,1978.6190383578864,1978.6224579297334,1978.6278985510476,1978.6353641536102,1978.6448584999953,1978.6563851960973,1978.6699476744361,1978.6855491636527,1978.7031926721936,1978.7228809902376,1978.7446167098676,1978.7684022878268,1978.7942401244932,1978.8221325718384,1978.8520818683467,1978.8840900812215,1978.9181590765754,1978.9542904924444,1978.992485712601,1979.0327458476568,1979.0750717340043,1979.1194639668227,1979.1659229586319,1979.2144489958046,1979.2650422788352,1979.317702943934,1979.3724310712184,1979.4292266758525,1979.4880896573804,1979.5490197198405,1979.6120163255366,1979.677078712088,1979.7442059471975,1979.8133969947673,1979.8846507757241,1979.95796620368,1980.0333421950168,1980.1107776505605,1980.1902713755708,1980.2718219579315,1980.355427695822,1980.4410866142289,1980.528796514711,1980.6185549894496,1980.7103593959296,1980.8042068389123,1980.900094185256,1980.9980180904897,1981.0979750014365,1981.1999611340752,1981.303972457068,1981.4100046947508,1981.5180533398457,1981.6281136657562,1981.740180735197,1981.854249400697,1981.9703142904827,1982.0883697951608,1982.2084100896852,1982.3304291849274,1982.4544209601656,1982.5803791553956,1982.7082973445602,1982.8381689120117,1982.969987045191,1983.1037447565025,1983.2394349246547,1983.3770503209737,1983.5165836077108,1983.658027318893,1983.801373826959,1983.9466153032993,1984.0937437047482,1984.2427508136184,1984.3936282943564,1984.5463676877075,1984.700960343605,1984.857397380824,1985.0156697233044,1985.1757681701345,1985.337683426981,1985.5014060908495,1985.6669266194174,1985.8342352784443,1986.0033220891733,1986.1741768564546,1986.3467892702945,1986.5211489729065,1986.6972455442012,1986.8750684511585,1987.0546070109808,1987.2358503769567,1987.418787534861,1987.6034073042122,1987.7896983472288,1987.9776491919722,1988.167248263596,1988.3584839062505,1988.5513443952411,1988.7458179313237,1988.941892581031,1989.1395561776317,1989.3387962504826,1989.5395999957498,1989.741954262945,1989.9458455617362,1990.1512600870046,1990.3581837422712,1990.5666021643276,1990.7765007608423,1990.9878647593148,1991.2006792548063,1991.4149292211437,1991.6305994503034,1991.8476744690684,1992.0661385424955,1992.2859757629806,1992.5071701141605,1992.7297054629942,1992.9535655031505,1993.178733654569,1993.405192943945,1993.6329259338906,1993.8619147239,1994.092140994715,1994.3235860847374,1994.5562310790067,1994.7900568701791,1995.0250441939368,1995.261173646538,1995.4984256459677,1995.7367803460143,1995.97621757428,1996.2167168139997,1996.4582572008621,1996.7008175230728,1996.9443762242488,1997.1889114038731,1997.4344008116561,1997.680821847165,1997.928151587443,1998.176366835311,1998.4254441583348,1998.6753599216988,1998.9260903259428,1999.1776114329293,1999.4298991731414,1999.6829293330952,1999.9366775038006,2000.1911190069015,2000.4462288557024,2000.7019817604148,2000.9583521439465,2001.2153141613387,2001.4728417232564,2001.7309085056795,2001.9894879429578,2002.2485532245128,2002.50807731101,2002.768032972438,2003.0283928480917,2003.2891295130448,2003.5502155113518,2003.811623335692,2004.0733253709038,2004.3352938192593,2004.5975006257377,2004.8599174536043,2005.1225157561432,2005.3852668986956,2005.6481422299842,2005.911113084465,2006.1741507599286,2006.437226475629,2006.700311324324,2006.9633762721908,2007.2263922062095,2007.4893299770838,2007.7521604299907,2008.0148544324916,2008.2773828776938,2008.5397166614484,2008.8018266664471,2009.063683770662,2009.325258874043,2009.5865229373906,2009.847447023258,2010.1080023206252,2010.3681601513206,2010.6278919768495,2010.8871694226711,2011.1459643134328,2011.404248693195,2011.6619948201003,2011.9191751509022,2012.1757623328012,2012.4317292042101,2012.6870487963326,2012.941694332315,2013.1956392284274,2013.4488571037723,2013.7013217956753,2013.953007367778,2014.203888104749,2014.4539385138949,2014.7031333689722,2014.9514477848386,2015.198857260463,2015.445337661086,2015.6908651837505,2015.9354163703074,2016.1789681642454,2016.4214979431827,2016.6629834892922,2016.9034029228126,2017.1427346355676,2017.38095724072,2017.618049558639,2017.8539906624198,2018.08875995221,2018.3223371893823,2018.554702481622,2018.7858362672102,2019.0157193236591,2019.2443327881197,2019.471658170495,2019.6976773556082,2019.922372602944,2020.1457265500499,2020.3677222208144,2020.5883430386239,2020.807572840743,2021.025395888244,2021.2417968735083,2021.4567609192184,2021.67027354612,2021.8823206172594,2022.0928883150964,2022.3019631940865,2022.5095322564005,2022.7155829424519,2022.9201030382653,2023.1230806120643,2023.324504032418,2023.5243620107403,2023.7226435886232,2023.9193380728418,2024.1144350020154,2024.3079241996977,2024.499795856281,2024.690040527739,2024.878649051212,2025.0656124760173,2025.2509220409213,2025.4345691806352,2025.6165455797886,2025.7968432605892,2025.9754546424977,2026.1523725593147,2026.3275902653252,2026.5011014471318,2026.6729002379348,2026.8429812237084,2027.0113394347838,2027.1779703159375,2027.3428696587634,2027.5060335271564,2027.6674582562414,2027.827140522315,2027.985077383991,2028.1412662369414,2028.295704745523,2028.4483908644825,2028.5993229450637,2028.748499798524,2028.8959206489033,2029.0415850436098,2029.185492831367,2029.3276442127928,2029.4680397711118,2029.6066804274142,2029.7435673561688,2029.8787019258998,2030.0120856796352,2030.1437203315957,2030.2736077687628,2030.401750068688,2030.5281495570707,2030.6528088905052,2030.7757310990694,2030.8969195522486,2031.0163778968742,2031.1341100466007,2031.2501202253518,2031.3644129998254,2031.476993271843,2031.5878662488026,2031.6970374088678,2031.8045124694136,2031.9102973627862,2032.0143982084232,2032.1168212971554,2032.2175731440843,2032.3166605966496,2032.4140908988882,2032.5098716644197,2032.6040108015693,2032.6965164429625,2032.7873968970398,2032.8766606287943,2032.9643162758152,2033.0503726846277,2033.1348389442053,2033.2177244081297,2033.2990386944493,2033.3787916441634,2033.456993254563,2033.533653633274,2033.60878298436,2033.6823916090427,2033.7544899161676,2033.8250884513438,2033.8941979581439,2033.9618294559486,2034.0279942764182,2034.0927040220754,2034.15597048798,2034.2178056174919,2034.2782215030759,2034.3372303964507,2034.3948447138757,2034.451077035768,2034.5059400901,2034.5594467236342,2034.611609887773,2034.662442656063,2034.7119582461694,2034.760169995205,2034.807091294493,2034.8527355499002,2034.8971162006014,2034.9402467767993,2034.982140977335,2035.0228127477078,2035.062276309423,2035.100546101709,2035.137636685108,2035.1735627055243,2035.2083389276577,2035.2419802639818,2035.2745017635646,2035.3059185741174,2035.3362458882307,2035.3654988871806,2035.3936927269388,2035.4208426106047,2035.4469638969542,2035.4720721294734,2035.4961829785782,2035.5193121878979,2035.5414755546435,2035.5626889116072,2035.5829680880686,2035.6023288593494,2035.6207869203106,2035.6383579014546,2035.6550574077542,2035.6709010526183,2035.6859044784749,2035.7000833647821,2035.7134534238744,2035.726030394378,2035.7378300476162,2035.7488682053781,2035.7591607499862,2035.7687236161103,2035.7775727704138,2035.785724187149,2035.7931938257873,2035.7999976208202,2035.8061514898277,2035.8116713520956,2035.8165731464271,2035.8208728436844,2035.8245864573048,2035.827730061125,2035.8303197962528,2035.8323718174931,2035.833902192715,2035.834926838734,2035.8354615265782,2035.8355219115035,,,,,,,,,,,,,,,,,,,,,,,,,,,,,,,,,,,,,,,,,,,,,,,,,,,,,,,,,,,,,,,,,,,,,,,,,,,,,,,,,,,,,,,,,,,,,,,,,,,,,,,,,,,,,,,,,,,,,,,,,,,,,,,,,,,,,,,,,,,,,,,,,,,,,,,,,,,,,,,,,,,,,,,,,,,,,,,,,,,,,,,,,,,,,,,,,,,,,,,,,,,,,,,,,,,,,,,,,,,,,,,,,,,,,,,,,,,,,,,,,,,,,,,,,,,,,,,,,,,,,,,,,,,,,,,,,,,,,,,,,,,,,,,,,,,,,,,,,,,,,,,,,,,,,,,,,,,,,,,,,,,,,,,,,,,,,,,,,,,,,,,,,,,,,,,,,,,,,,,,,,,,,,,,,,,,,,,,,,,,,,,,,,,,,,,,,,,,,,,,,,,,,,,,,,,,,,,,,,,,,,,,,,,,,,,,,,,,,,,,,,,,,,,,,,,,,,,,,,,,,,,,,,,,,,,,,,,,,,,,,,,,,,,,,,,,,,,,,,,,,,,,,,,,,,,,,,,,,,,,,,,,,,,,,,,,,,,,,,,,,,,,,,,,,,,,,,,,,,,,,,,,,,,,,,,,,,,,,,,,,,,,,,,,,,,,,,,,,,,,,,,,,,,,,,,,,,,,,,,,,,,,,,,,,,,,,,,,,,,,,,,,,,,,,,,,,,,,,,,,,,,,,,,,,,,,,,,,,,,,,,,,,,,,,,,,,,,,,,,,,,,,,,,,,,,,,,,,,,,,,,,,,,,,,,,,,,,,,,,,,,,,,,,,,,,,,,,,,,,,,,,,,,,,,,,,,,,,,,,,,,,,,,,,,,,,,,,,,,,,,,,,,,,,,,,,,,,,,,,,,,,,,,,,,,,,,,,,,,,,,,,,,,,,,,,,,,,,,,,,,,,,,,,,,,,,,,,,,,,,,,,,,,,,,,,,,,,,,,,,,,,,,,,,,,,,,,,,,,,,,,,,,,,,,,,,,,,,,,,,,,,,,,,,,,,,,,,,,,,,,,,,,,,,,,,,,,,,,,,,,,,,,,,,,,,,,,,,,,,,,,,,,,,,,,,,,,,,,,,,,,,,,,,,,,,,,,,,,,,,,,,,,,,,,,,,,,,,,,,,,,,,,,,,,,,,,,,,,,,,,,,,,,,,,,,,,,,,,,,,,,,,,,,,,,,,,,,,,,,,,,,,,,,,,,,,,,,,,,,,,,,,,,,,,,,,,,,,,,,,,,,,,,,,,,,,,,,,,,,,,,,,,,,,,,,,,,,,,,,,,,,,,,,,,,,,,,,,,,,,,,,,,,,,,,,,,,,,,,,,,,,,,,,,,,,,,,,,,,,,,,,,,,,,,,,,,,,,,,,,,,,,,,,,,,,,,,,,,,,,,,,,,,,,,,,,,,,,,,,,,,,,,,,,,,,,,,,,,,,,,,,,,,,,,,,,,,,,,,,,,,,
2047.623655708463,2047.622123740179,2047.617377959349,2047.6094200637385,2047.5982521650008,2047.583876754242,2047.566296669232,2047.5455151172157,2047.5215357476513,2047.4943626973793,2047.4640005700865,2047.4304543906364,2047.3937295922847,2047.353832040021,2047.3107680413573,2047.264544309666,2047.21516791334,2047.1626462825843,2047.1069872722153,2047.0481992115,2046.9862909199342,2046.921271706406,2046.8531513485018,2046.7819400572243,2046.7076484461957,2046.6302874984453,2046.5498685238872,2046.4664031257405,2046.379903184419,2046.2903808605056,2046.1978486293954,2046.1023193382694,2046.0038062537587,2045.90232308853,2045.7978840059823,2045.690503594534,2045.5801968151525,2045.466978935514,2045.3508654674288,2045.231872134713,2045.110014882463,2044.9853099070376,2044.8577736844388,2044.7274229845095,2044.594274858779,2044.4583466096622,2044.3196557722558,2044.1782201241472,2044.0340576976735,2043.887186753252,2043.7376257206763,2043.585393160714,2043.4305077668898,2043.27298838676,2043.11285404726,2042.9501239780407,2042.784817624274,2042.616954646086,2042.4465549151676,2042.273638522355,2042.0982257945589,2041.9203373064352,2041.739993881118,2041.5572165897518,2041.3720267623985,2041.1844460078871,2040.9944962247528,2040.8021995927174,2040.6075785548544,2040.410655807476,2040.2114543005857,2040.0099972204941,2039.8063079103742,2039.6004097595928,2039.3923261628383,2039.1820805595944,2038.9696964789011,2038.7551975683095,2038.538607624471,2038.319950622118,2038.0992507345386,2037.8765323406749,2037.6518200127628,2037.4251384970855,2037.1965127138094,2036.9659677763068,2036.733529005623,2036.4992219291325,2036.263072257299,2036.02510581866,2035.7853484696686,2035.5438260483631,2035.3005644095983,2035.0555894951785,2034.8089273662706,2034.5606041903889,2034.3106462235212,2034.0590798007875,2033.8059313173699,2033.5512271798389,2033.294993740446,2033.0372572622648,2032.7780439391104,2032.517379932103,2032.2552913648608,2031.991804278939,2031.7269446152468,2031.4607382684994,2031.193211163183,2030.924389243923,2030.654298383096,2030.3829643233373,2030.1104127162184,2029.8366691921653,2029.5617593589827,2029.2857087297907,2029.0085426680103,2028.7302863810398,2028.45096493017,2028.1706032323884,2027.8892260540792,2027.6068580156827,2027.3235236292248,2027.0392473500526,2026.754053591656,2026.4679667003309,2026.1810109355265,2025.893210476978,2025.6045894387398,2025.315171862939,2025.0249816952785,2024.7340427572979,2024.442378702818,2024.1500129573485,2023.85696867292,2023.5632687101,2023.2689356504447,2022.9739918649432,2022.6784596068053,2022.3823610360994,2022.0857181705476,2021.7885528351133,2021.4908866249766,2021.1927408766303,2020.8941366844163,2020.595094958857,2020.2956364614552,2019.9957817798575,2019.6955512742168,2019.3949650434351,2019.0940429202158,2018.7928044900543,2018.491269155266,2018.1894562164607,2017.887384884238,2017.5850742186653,2017.2825430902635,2016.9798102128016,2016.6768941992211,2016.3738135603558,2016.0705866472579,2015.767231602451,2015.4637663355277,2015.1602085088894,2014.8565755478314,2014.552884672941,2014.2491529170804,2013.9453971022035,2013.6416338088702,2013.3378794025612,2013.0341501107068,2012.7304620676648,2012.4268312817994,2012.1232735802485,2011.8198046254984,2011.5164400001215,2011.2131952769053,2010.9100860561184,2010.6071279824912,2010.3043367098567,2010.0017278227865,2009.6993167797277,2009.3971188926535,2009.0951493274029,2008.7934231397223,2008.4919553384884,2008.1907609209354,2007.889854849457,2007.5892520064997,2007.2889671867786,2006.9890151292511,2006.6894105446268,2006.3901681221826,2006.091302526027,2005.7928283824383,2005.4947602619236,2005.197112661682,2004.8998999783291,2004.603136492382,2004.3068364302353,2004.0110140886125,2003.7156839143856,2003.4208604955422,2003.1265585026508,2002.8327926112543,2002.5395774250721,2002.2469274349028,2001.954857024989,2001.6633804874953,2001.3725119935677,2001.0822655286918,2000.7926548584694,2000.5036935625562,2000.2153951140324,1999.927772972157,1999.640840665789,1999.3546118350132,1999.0691002155577,1998.7843196025149,1998.500283845703,1998.2170068782923,1997.9345027425852,1997.6527856024045,1997.3718697473603,1997.0917695800738,1996.8124995900068,1996.5340743378338,1996.2565084604998,1995.9798166730297,1995.7040137297568,1995.42911435512,1995.1551331955511,1994.8820848042194,1994.6099836367243,1994.3388440528684,1994.0686803245078,1993.7995066434003,1993.5313371290424,1993.2641858446182,1992.9980668311957,1992.7329941520625,1992.4689819224463,1992.2060443197558,1991.944195586512,1991.683450028809,1991.4238220115212,1991.1653259567524,1990.9079763467369,1990.6517877186197,1990.3967746324543,1990.142951616876,1989.8903331172044,1989.638933459359,1989.3887668417615,1989.1398473710483,1988.892189108728,1988.6458060581917,1988.4007120957272,1988.1569209319512,1987.9144461535673,1987.6733012995992,1987.4334998937986,1987.1950554255197,1986.9579813297726,1986.7222909879597,1986.4879977407747,1986.2551149108294,1986.023655829735,1985.793633861927,1985.5650624345692,1985.337955071096,1985.1123253991898,1984.8881871315618,1984.6655540446982,1984.4444399563768,1984.2248587043932,1984.0068241544875,1983.790350235849,1983.575450954703,1983.3621403470302,1983.1504323984145,1982.940340995118,1982.731879918964,1982.5250628673637,1982.3199035110638,1982.1164155608083,1981.9146127540648,1981.7145087654656,1981.5161171407694,1981.319451290452,1981.1245245100613,1980.9313500090843,1980.7399409414215,1980.5503104232773,1980.362471533995,1980.176437318912,1979.9922208214118,1979.8098351364702,1979.6292934321352,1979.45060889797,1979.2737946553427,1979.0988637034118,1978.925828914592,1978.7547030397482,1978.585498701203,1978.4182283804603,1978.2529044144346,1978.0895390014055,1977.9281442134497,1977.7687320246862,1977.6113143537054,1977.4559031003062,1977.302510167616,1977.1511474655333,1977.0018268849465,1976.8545602512472,1976.7093592814838,1976.5662355561046,1976.4252005239591,1976.2862655742258,1976.149442139973,1976.0147417363862,1975.8821759243312,1975.7517562613255,1975.623494242759,1975.4974012321466,1975.373488431126,1975.251766896911,1975.13224757109,1975.0149413193642,1974.8998589712724,1974.7870113063466,1974.67640899035,1974.568062541119,1974.4619823722862,1974.3581788767497,1974.2566624825383,1974.1574436672795,1974.0605329560183,1973.9659409105016,1973.8736781156072,1973.7837551799582,1973.696182750721,1973.610971507698,1973.5281320953304,1973.4476750258807,1973.3696106475124,1973.2939491853847,1973.2207007888153,1973.1498755723435,1973.0814836454167,1973.0155350755242,1972.95203979411,1972.891007534522,1972.832447838103,1972.7763700858275,1972.722783510041,1972.6716971834649,1972.6231200122409,1972.5770607496509,1972.5335280134736,1972.492530273299,1972.4540758110522,1972.4181726892075,1972.384828732376,1972.3540515263203,1972.325848470103,1972.3002268683833,1972.2771939774454,1972.2567569514054,1972.2389227433662,1972.2236980584878,1972.211089370737,1972.201102957472,1972.1937449522666,1972.189021417193,1972.1869383964233,1972.1875019377617,1972.190718086573,1972.1965928370946,1972.2051320549224,1972.2163414185509,1972.2302263945694,1972.2467922347498,1972.2660439950234,1972.2879865637747,1972.3126246698296,1972.3399628681136,1972.3700055419265,1972.402756961186,1972.438221359726,1972.476402936705,1972.5173057817262,1972.5609338194117,1972.6072908135998,1972.6563803905935,1972.7082060356138,1972.7627710632694,1972.820078595718,1972.8801315615008,1972.942932715049,1973.0084846914729,1973.076790082832,1973.1478514884257,1973.2216715285476,1973.2982528452437,1973.3775980985852,1973.4597099592759,1973.5445911069198,1973.6322442428761,1973.722672103096,1973.8158774380813,1973.9118629648274,1974.0106313394417,1974.1121851772127,1974.2165270840194,1974.32365963782,1974.4335853246846,1974.5463064849505,1974.6618252764013,1974.7801436390473,1974.9012632781498,1975.0251856695368,1975.1519120693658,1975.2814435250862,1975.4137808884086,1975.5489248209576,1975.6868757909772,1975.8276340667735,1975.9711997052716,1976.1175725332496,1976.266752123687,1976.4187377729063,1976.5735284898674,1976.7311230049181,1976.8915198028683,1977.0547171933745,1977.220713400776,1977.3895066149685,1977.5610949789657,1977.7354765395248,1977.9126491827403,1978.0926105704325,1978.275358112626,1978.460889000867,1978.6492002630264,1978.840288766963,1979.034151183193,1979.2307839901405,1979.430183531303,1979.6323460468366,1979.8372676333129,1980.0449441722194,1980.2553712994174,1980.4685444228628,1980.6844587338167,1980.9031091766562,1981.124490397976,1981.3485967175807,1981.575422128264,1981.8049603211323,1982.0372047668966,1982.2721488365025,1982.5097858823888,1982.7501092596815,1982.9931123189715,1983.2387883759493,1983.4871306570842,1983.738132233116,1983.9917859565855,1984.248084435863,1984.507020070015,1984.7685851047527,1985.0327716339966,1985.2995715462475,1985.5689764879796,1985.840977880572,1986.115566958319,1986.3927347796491,1986.6724722083004,1986.9547698936715,1987.2396182584566,1987.527007490727,1987.8169275501969,1988.1093681866432,1988.4043189595268,1988.7017692673337,1989.0017083886657,1989.3041255143905,1989.609009762328,1989.9163501809671,1990.226135745865,1990.5383553527822,1990.8529978124268,1991.1700518476162,1991.4895060867711,1991.8113490440066,1992.135569093528,1992.4621544626714,1992.791093244812,1993.1223734159055,1993.4559828583194,1993.791909374911,1994.1301406381763,1994.4706640866414,1994.8134668658658,1995.1585358668049,1995.5058577889038,1995.8554191070234,1996.2072059499062,1996.5612040086496,1996.9173985121092,1997.2757742363656,1997.6363155494757,1997.9990064797403,1998.3638307689464,1998.7307719158587,1999.099813210365,1999.4709377067518,1999.8441281421947,2000.2193668864747,2000.5966359671459,2000.9759171291714,2001.3571918698021,2001.7404414393593,2002.1256468241536,2002.512788703833,2002.9018473884305,2003.2928027687883,2003.685634292123,2004.0803209465064,2004.4768412368119,2004.8751731687646,2005.2752942901836,2005.6771817784652,2006.0808124899165,2006.4861629275304,2006.8932091754787,2007.3019268721391,2007.7122912277387,2008.1242770496947,2008.5378587728133,2008.9530104959697,2009.3697059988983,2009.7879187342223,2010.207621809739,2010.6287879560873,2011.0513894802057,2011.475398225274,2011.900785546466,2012.3275222944044,2012.7555787937354,2013.1849248302171,2013.6155296885115,2014.0473622305396,2014.48039094259,2014.914583919127,2015.3499088380706,2015.786333008288,2016.223823476714,2016.6623470867821,2017.1018704285216,2017.5423597423974,2017.9837808758853,2018.4260993029275,2018.8692801592033,2019.3132882944358,2019.7580883299663,2020.2036446542488,2020.6499213566722,2021.0968821755757,2021.544490487645,2021.9927093163692,2022.4415013502341,2022.890828965372,2023.3406542445562,2023.7909390010625,2024.2416448146976,2024.6927330710703,2025.144164993557,2025.595901651734,2026.047903930858,2026.5001324907978,2026.9525477728366,2027.4051100519134,2027.8577794702014,2028.310516021998,2028.763279528879,2029.2160296627242,2029.668726010128,2030.121328109626,2030.5737954268468,2031.0260873174952,2031.4781630584953,2031.9299819387736,2032.3815033269193,2032.8326866950279,2033.2834916352444,2033.7338778860474,2034.1838053609665,2034.6332341517461,2035.0821244767387,2035.5304365976565,2035.9781307631029,2036.425167192274,2036.8715060886889,2037.3171077038216,2037.7619324242744,2038.2059407964723,2038.6490934819888,2039.0913512286972,2039.5326749100884,2039.9730255982681,2040.4123646049095,2040.8506534792066,2041.2878540021823,2041.7239282029113,2042.1588383840829,2042.592547127284,2043.0250172759766,2043.456211930248,2043.8860944829519,2044.314628666001,2044.7417785329708,2045.1675083816667,2045.5917826937407,2046.0145661144809,2046.4358234512756,2046.8555196919656,2047.273620037813,2047.6900899271486,2048.104895046856,2048.5180013442764,2048.929375042365,2049.3389826536454,2049.746790979568,2050.1527670794494,2050.556878234154,2050.9590919629295,2051.3593760885415,2051.7576987809102,2052.1540285508636,2052.5483342199614,2052.9405848887136,2053.3307499104876,2053.7187988755736,2054.1047016037837,2054.4884281399045,2054.8699487511926,2055.2492339269115,2055.6262543766675,2056.0009810251063,2056.3733850074386,2056.743437675121,2057.111110618594,2057.476375711941,2057.8392051668966,2058.199571570642,2058.557447910226,2058.912807593351,2059.265624449296,2059.6158727091656,2059.9635269865585,2060.3085622619046,2060.6509538684445,2060.990677491612,2061.327709181417,2061.6620253567316,2061.9936027864683,2062.322418558199,2062.6484500565284,2062.971674956089,2063.2920712194277,2063.6096170949077,2063.924291120306,2064.236072143473,2064.5449393543718,2064.8508723069885,2065.1538509278785,2065.4538555231043,2065.75086678763,2066.0448658143277,2066.3358340863697,2066.6237534282577,2066.9086059426704,2067.190374006972,2067.4690403297873,2067.744587997044,2068.0170004851784,2068.286261651636,2068.5523556860417,2068.815267033799,2069.0749803505487,2069.331480513848,2069.584752654754,2069.8347821594048,2070.081554639787,2070.325055921158,2070.5652720818266,2070.802189522574,2071.035795013777,2071.266075708073,2071.4930191315393,2071.716613146901,2071.9368459005336,2072.153705793422,2072.3671814829772,2072.577261886902,2072.783936172475,2072.987193741798,2073.1870242337,2073.3834175414863,2073.5763638278695,2073.7658535338387,2073.9518773830846,2074.1344263710357,2074.3134917409284,2074.4890649619315,2074.661137706076,2074.82970183413,2074.9947494318108,2075.1562728869912,2075.314264942588,2075.46871870444,2075.619627627705,2075.766985489892,2075.9107863570166,2076.0510245741284,2076.187694809408,2076.3207921218263,2076.4503119829724,2076.576250247386,2076.698603111147,2076.8173670522274,2076.9325387534254,2077.044115056151,2077.1520929564354,2077.2564696135382,2077.357242362228,2077.45440872874,2077.547966439858,2077.6379134226904,2077.7242478162348,2077.8069680255635,2077.8860727902347,2077.961561183757,2078.0334325441045,2078.1016864152075,2078.1663225213338,2078.227340752851,2078.28474116743,2078.3385240062826,2078.388689710828,2078.435238941822,2078.4781726114816,2078.517491931875,2078.5531984673817,2078.5852941616213,2078.6137813242376,2078.638662590528,2078.6599408660772,2078.6776192702055,2078.691701104587,2078.7021898559783,2078.709089212353,,,,,,,,,,,,,,,,,,,,,,,,,,,,,,,,,,,,,,,,,,,,,,,,,,,,,,,,,,,,,,,,,,,,,,,,,,,,,,,,,,,,,,,,,,,,,,,,,,,,,,,,,,,,,,,,,,,,,,,,,,,,,,,,,,,,,,,,,,,,,,,,,,,,,,,,,,,,,,,,,,,,,,,,,,,,,,,,,,,,,,,,,,,,,,,,,,,,,,,,,,,,,,,,,,,,,,,,,,,,,,,,,,,,,,,,,,,,,,,,,,,,,,,,,,,,,,,,,,,,,,,,,,,,,,,,,,,,,,,,,,,,,,,,,,,,,,,,,,,,,,,,,,,,,,,,,,,,,,,,,,,,,,,,,,,,,,,,,,,,,,,,,,,,,,,,,,,,,,,,,,,,,,,,,,,,,,,,,,,,,,,,,,,,,,,,,,,,,,,,,,,,,,,,,,,,,,,,,,,,,,,,,,,,,,,,,,,,,,,,,,,,,,,,,,,,,,,,,,,,,,,,,,,,,,,,,,,,,,,,,,,,,,,,,,,,,,,,,,,,,,,,,,,,,,,,,,,,,,,,,,,,,,,,,,,,,,,,,,,,,,,,,,,,,,,,,,,,,,,,,,,,,,,,,,,,,,,,,,,,,,,,,,,,,,,,,,,,,,,,,,,,,,,,,,,,,,,,,,,,,,,,,,,,,,,,,,,,,,,,,,,,,,,,,,,,,,,,,,,,,,,,,,,,,,,,,,,,,,,,,,,,,,,,,,,,,,,,,,,,,,,,,,,,,,,,,,,,,,,,,,,,,,,,,,,,,,,,,,,,,,,,,,,,,,,,,,,,,,,,,,,,,,,,,,,,,,,,,,,,,,,,,,,,,,,,,,,,,,,,,,,,,,,,,,,,,,,,,,,,,,,,,,,,,,,,,,,,,,,,,,,,,,,,,,,,,,,,,,,,,,,,,,,,,,,,,,,,,,,,,,,,,,,,,,,,,,,,,,,,,,,,,,,,,,,,,,,,,,,,,,,,,,,,,,,,,,,,,,,,,,,,,,,,,,,,,,,,,,,,,,,,,,,,,,,,,,,,,,,,,,,,,,,,,,,,,,,,,,,,,,,,,,,,,,,,,,,,,,,,,,,,,,,,,,,,,,,,,,,,,,,,,,,,,,,,,,,,,,,,,,,,,,,,,,,,,,,,,,,,,,,,,,,,,,,,,,,,,,,,,,,,,,,,,,,,,,,,,,,,,,,,,,,,,,,,,,,,,,,,,,,,,,,,,,,,,,,,,,,,,,,,,,,,,,,,,,,,,,,,,,,,,,,,,,,,,,,,,,,,,,,,,,,,,,,,,,,,,,,,,,,,,,,,,,,,,,,,,,,,,,,,,,,,,,,,,,,,,,,,,,,,,,,,,,,,,,,,,,,,,,,,,,,,,,,,,,,,,,,,,,,,,,,,,,,,,,,,,,,,,,,,,,,,,,,,,,,
2031.230943161535,2031.2253511331178,2031.2139291706774,2031.1966897812092,2031.1736461008256,2031.1448118053506,2031.110201086428,2031.069828708534,2031.0237101571493,2030.9718618960428,2030.9143016695543,2030.851048661378,2030.7821234149596,2030.707547610395,2030.6273438093876,2030.5415352323798,2030.4501456601793,2030.3531995165042,2030.250722037836,2030.1427393831198,2030.0292786563823,2029.910367875609,2029.7860358609482,2029.656312097382,2029.5212267424054,2029.380810777432,2029.2350960887854,2029.0841153410674,2028.9279017493386,2028.7664889539867,2028.599911030343,2028.4282025612363,2028.2513988019778,2028.069535851862,2027.882650560341,2027.6907801922332,2027.4939622366494,2027.29223457378,2027.0856357674445,2026.8742050948765,2026.6579823073278,2026.4370074369358,2026.2113207614077,2025.9809628624093,2025.7459747943274,2025.5063983223697,2025.2622760312515,2025.0136511685416,2024.760567394498,2024.5030687666513,2024.2411999642661,2023.9750064128764,2023.7045340934685,2023.4298292132664,2023.1509380779241,2022.8679071984607,2022.580783370072,2022.289613566378,2021.9944447401488,2021.6953237010498,2021.3922971024624,2021.0854114937827,2020.7747134728181,2020.4602499177652,2020.1420681782308,2019.8202161791373,2019.4947424144268,2019.1656957484995,2018.8331251446355,2018.4970796358416,2018.1576085470972,2017.8147616497101,2017.468589084933,2017.119141177372,2016.7664683087326,2016.4106208852354,2016.0516493345958,2015.6896040915233,2015.3245355576423,2014.9564940217251,2014.5855295620327,2014.2116919859056,2013.8350308155755,2013.455595343278,2013.073434854403,2012.6885989648265,2012.3011377967275,2011.9111018313283,2011.5185416296122,2011.1235077428719,2010.7260508374497,2010.326221768239,2009.9240714252708,2009.5196504662247,2009.1130091708071,2008.7041974554586,2008.293264953504,2007.8802611761303,2007.465235722136,2007.0482383735982,2006.6293190556607,2006.2085277566111,2005.7859143941425,2005.3615286854995,2004.935420243343,2004.5076388755356,2004.0782347785293,2003.6472584769006,2003.2147606103242,2002.780791670572,2002.3454017564934,2001.9086404290451,2001.470556662521,2001.0311988560766,2000.5906149555574,2000.1488526574192,1999.7059595575345,1999.2619832192413,1998.816971186276,1998.370970879041,1997.924029402415,1997.476193392056,1997.0275088914932,1996.5780212638615,1996.1277752985613,1995.676815488475,1995.2251862046191,1994.772931636152,1994.3200956162739,1993.8667214878892,1993.412852044936,1992.9585295634863,1992.503795994423,1992.0486932163938,1991.5932630707864,1991.1375471723115,1990.6815867708838,1990.2254227866172,1989.769095896116,1989.3126465161865,1988.8561146913842,1988.399539996947,1987.9429614686612,1987.486417544267,1987.0299460830831,1986.5735844946269,1986.117369948013,1985.6613395980219,1985.205530709865,1984.7499806300718,1984.2947266368383,1983.8398056724009,1983.385254026676,1982.9311071786149,1982.4773999029821,1982.0241665258711,1981.5714411750805,1981.1192579650851,1980.6676510422278,1980.2166543913959,1979.7663015490796,1979.316625556204,1978.86765916484,1978.4194349859154,1977.9719854176426,1977.5253424598075,1977.0795375588175,1976.63460152454,1976.190564547143,1975.7474563908706,1975.305306691667,1974.8641451457854,1974.4240015445057,1973.9849057216347,1973.5468873740422,1973.1099758488335,1972.67420018824,1972.2395894232498,1971.8061727607835,1971.3739794784894,1970.9430386720487,1970.5133790640068,1970.0850289241378,1969.6580160949281,1969.2323681824494,1968.8081127997746,1968.385277565454,1967.9638898596093,1967.5439766210309,1967.1255642596539,1966.70867863568,1966.2933451810013,1965.8795891347181,1965.467435681169,1965.056909880201,1964.6480364832826,1964.2408397624079,1963.8353433966668,1963.431570419051,1963.029543209385,1962.6292835244083,1962.2308125932188,1961.8341512562781,1961.4393200723207,1961.046339394453,1960.6552294692963,1960.2660105784055,1959.8787031886268,1959.4933280049622,1959.109905831054,1958.7284573334566,1958.3490029212755,1957.9715627732278,1957.5961568992818,1957.222805209951,1956.8515276009318,1956.4823440120554,1956.1152744477263,1955.7503389921912,1955.3875578478448,1955.0269514055472,1954.6685403495214,1954.312345772462,1953.9583892521323,1953.6066928855985,1953.25727931188,1952.9101717294227,1952.5653939058325,1952.2229701657611,1951.8829253210438,1951.5452845418022,1951.2100732044173,1950.8773167561244,1950.5470406231534,1950.219270130361,1949.8940304259415,1949.5713464932787,1949.251243248662,1948.9337456017608,1948.6188784083367,1948.306666407514,1947.9971343103052,1947.6903070188744,1947.38620978035,1947.0848682059434,1946.786308237435,1946.490556122583,1946.1976384071438,1945.907581929398,1945.6204137992322,1945.336161322024,1945.0548518044975,1944.7765122925584,1944.5011694462721,1944.2288496763667,1943.9595793665883,1943.6933848741571,1943.4302923096106,1943.1703273999328,1942.913515597815,1942.659882269073,1942.4094526825293,1942.1622518062043,1941.9183041598621,1941.6776338252125,1941.4402645086163,1941.2062195460246,1940.9755218501439,1940.7481938690782,1940.5242575795191,1940.3037345401374,1940.086646091083,1939.87301365087,1939.6628588977849,1939.4562037511873,1939.253070223231,1939.0534801717763,1938.8574550173269,1938.6650156253068,1938.4761824960133,1938.2909760673365,1938.1094167596664,1937.9315247527284,1937.757319854668,1937.5868216788092,1937.4200499626695,1937.2570247304595,1937.0977662593186,1936.9422949929,1936.7906314164102,1936.6427958931006,1936.4988085647979,1936.3586893421136,1936.2224578997052,1936.0901336099062,1935.9617354416564,1935.837281906797,1935.7167910678336,1935.6002805917797,1935.4877679000917,1935.3792703928937,1935.2748056205457,1935.1743913602436,1935.078045647652,1934.9857868007657,1934.89763341419,1934.813604253324,1934.7337180753657,1934.6579934797278,1934.5864487660608,1934.5191018024489,1934.455970057653,1934.397070789705,1934.3424211664542,1934.2920382052273,1934.2459386252042,1934.2041387407394,1934.1666544225586,1934.1335011332355,1934.1046941049176,1934.0802485490165,1934.0601795952493,1934.0445019754184,1934.033229814809,1934.0263767004728,1934.0239558366152,1934.0259800242184,1934.032461470032,1934.0434116954893,1934.0588417301979,1934.0787624515199,1934.1031847894196,1934.1321197452899,1934.165578370933,1934.2035717820736,1934.246111135872,1934.2932074403677,1934.3448712432948,1934.4011124439025,1934.4619403316453,1934.5273637517262,1934.5973913090127,1934.6720315590378,1934.7512931142735,1934.8351846502933,1934.9237148682423,1935.0168924520838,1935.1147260424175,1935.217224260215,1935.3243957689265,1935.4362493095632,1935.5527936741355,1935.674037662325,1935.79999009448,1935.9306598770909,1936.0660560361073,1936.2061876655323,1936.3510638015443,1936.5006932349747,1936.6550843082982,1936.8142447933126,1936.9781818725817,1937.1469021938747,1937.3204120206747,1937.4987174402934,1937.681824477,1937.8697390357886,1938.0624667434652,1938.260012760145,1938.462381607318,1938.669577070191,1938.8816021845582,1939.0984592710201,1939.3201500075695,1939.5466755213138,1939.7780364659918,1940.0142331147808,1940.2552654940353,1940.5011335220559,1940.7518371169867,1941.0073761930512,1941.2677504297287,1941.5329589126015,1941.802999917719,1942.0778708920525,1942.3575684953973,1942.642088669108,1942.9314267598684,1943.2255776985035,1943.5245361876684,1943.8282967676193,1944.1368536549257,1944.4502004643941,1944.768330038606,1945.0912344261021,1945.4189049043462,1945.7513320141359,1946.0885056080165,1946.430414884494,1946.7770483977881,1947.1283940303001,1947.4844388842016,1947.8451691703613,1948.2105702984938,1948.580627144167,1948.9553241977437,1949.3346454324083,1949.7185740387406,1950.1070922579315,1950.50018135339,1950.897821665603,1951.2999927976966,1951.7066738137237,1952.1178431073147,1952.5334779714647,1952.9535542772205,1953.3780463869348,1953.8069272225841,1954.2401685648085,1954.677741505733,1955.1196167042287,1955.5657642794833,1956.0161535198333,1956.4707526171546,1956.9295284909267,1957.3924467122272,1957.8594715353524,1958.3305660024441,1958.8056920826516,1959.2848108086484,1959.7678823233032,1960.2548657685513,1960.7457190934008,1961.2403989311,1961.7388605736805,1962.241058006689,1962.7469440400105,1963.2564704822148,1963.7695881763404,1964.286246885575,1964.8063951801487,1965.3299803626173,1965.8569483879517,1966.3872437809857,1966.9208095691863,1967.4575872538219,1967.9975168426135,1968.540536957975,1969.0865850464886,1969.6355976344782,1970.1875104424712,1970.7422582418603,1971.299774606359,1971.859991823684,1972.4228409867,1972.988252053735,1973.5561537588126,1974.1264734590034,1974.6991370714823,1975.2740691131196,1975.8511927579764,1976.4304299101393,1977.0117013149809,1977.5949266806324,1978.1800247763363,1978.7669134948526,1979.3555099071345,1979.9457303208137,1980.5374902937717,1981.1307045963845,1981.7252871942544,1982.3211513116944,1982.918209543912,1983.5163739319803,1984.1155559787978,1984.7156666381018,1985.3166162880689,1985.9183146984888,1986.5206710133066,1987.1235937498188,1987.7269908324784,1988.3307697267055,1988.934837615005,1989.5391014204836,1990.1434676687927,1990.747842371869,1991.3521310039948,1991.956238534279,1992.5600695168423,1993.163528213064,1993.7665186612603,1994.368944665587,1994.9707097669987,1995.571717266795,1996.1718702937762,1996.7710718598753,1997.3692249081118,1997.9662323721077,1998.5619972202371,1999.1564224703066,1999.7494112452935,2000.3408669945268,2000.9306938328666,2001.5187967798977,2002.105081836307,2002.6894559910527,2003.2718272093364,2003.8521043654769,2004.4301970360561,2005.0060152020671,2005.5794690985672,2006.1504693605862,2006.7189273203912,2007.2847552060673,2007.8478661888398,2008.4081743791608,2008.9655948266964,2009.5200434985752,2010.0714371756278,2010.619693289703,2011.1647298161859,2011.706465262749,2012.2448187389562,2012.7797101400545,2013.311060396233,2013.8387916527097,2014.3628273883407,2014.883092481731,2015.3995130722549,2015.9120162480485,2016.4205298661532,2016.9249826727946,2017.4253045263251,2017.9214263971332,2018.4132801419569,2018.9007983423958,2019.3839143435475,2019.8625623671062,2020.3366775322245,2020.8061957764521,2021.2710538190809,2021.7311892746109,2022.1865408470976,2022.6370484438105,2023.0826531774321,2023.5232973273235,2023.9589242701143,2024.3894784155264,2024.8149052589854,2025.2351515394848,2025.650165364215,2026.0598962525148,2026.4642951171008,2026.863314156924,2027.256906746292,2027.6450275292664,2028.0276326936878,2028.404680136323,2028.7761293780782,2029.1419413382755,2029.502078096223,2029.8565026977783,2030.2051790658954,2030.5480720497733,2030.885147525414,2031.2163724091042,2031.5417145786937,2031.8611428103777,2032.174626777153,2032.4821370435468,2032.7836449617319,2033.079122493392,2033.368542158657,2033.6518772929078,2033.9291024486045,2034.2001935587348,2034.4651278195677,2034.723883585074,2034.9764404230405,2035.222779246966,2035.4628823980743,2035.6967336556481,2035.924318188505,2036.1456223950445,2036.3606337152132,2036.5693406618677,2036.7717330625612,2036.9678022386283,2037.157541022831,2037.340943710457,2037.5180060041341,2037.6887249651902,2037.8530989830904,2038.0111277603953,2038.1628123016944,2038.3081549052351,2038.4471591585277,2038.5798299161304,2038.7061732198597,2038.826196190921,2038.9399069914143,2039.0473148641845,2039.1484301356197,2039.2432640800887,2039.3318287165491,2039.4141367194065,2039.4902014654235,2039.5600370666532,2039.6236582957872,2039.6810804603433,2039.732319339809,2039.7773912011342,2039.8163128348642,2039.84910160679,2039.8757755430615,2039.8963534423556,2039.9108549868868,2039.9193007753242,2039.9217122058074,,,,,,,,,,,,,,,,,,,,,,,,,,,,,,,,,,,,,,,,,,,,,,,,,,,,,,,,,,,,,,,,,,,,,,,,,,,,,,,,,,,,,,,,,,,,,,,,,,,,,,,,,,,,,,,,,,,,,,,,,,,,,,,,,,,,,,,,,,,,,,,,,,,,,,,,,,,,,,,,,,,,,,,,,,,,,,,,,,,,,,,,,,,,,,,,,,,,,,,,,,,,,,,,,,,,,,,,,,,,,,,,,,,,,,,,,,,,,,,,,,,,,,,,,,,,,,,,,,,,,,,,,,,,,,,,,,,,,,,,,,,,,,,,,,,,,,,,,,,,,,,,,,,,,,,,,,,,,,,,,,,,,,,,,,,,,,,,,,,,,,,,,,,,,,,,,,,,,,,,,,,,,,,,,,,,,,,,,,,,,,,,,,,,,,,,,,,,,,,,,,,,,,,,,,,,,,,,,,,,,,,,,,,,,,,,,,,,,,,,,,,,,,,,,,,,,,,,,,,,,,,,,,,,,,,,,,,,,,,,,,,,,,,,,,,,,,,,,,,,,,,,,,,,,,,,,,,,,,,,,,,,,,,,,,,,,,,,,,,,,,,,,,,,,,,,,,,,,,,,,,,,,,,,,,,,,,,,,,,,,,,,,,,,,,,,,,,,,,,,,,,,,,,,,,,,,,,,,,,,,,,,,,,,,,,,,,,,,,,,,,,,,,,,,,,,,,,,,,,,,,,,,,,,,,,,,,,,,,,,,,,,,,,,,,,,,,,,,,,,,,,,,,,,,,,,,,,,,,,,,,,,,,,,,,,,,,,,,,,,,,,,,,,,,,,,,,,,,,,,,,,,,,,,,,,,,,,,,,,,,,,,,,,,,,,,,,,,,,,,,,,,,,,,,,,,,,,,,,,,,,,,,,,,,,,,,,,,,,,,,,,,,,,,,,,,,,,,,,,,,,,,,,,,,,,,,,,,,,,,,,,,,,,,,,,,,,,,,,,,,,,,,,,,,,,,,,,,,,,,,,,,,,,,,,,,,,,,,,,,,,,,,,,,,,,,,,,,,,,,,,,,,,,,,,,,,,,,,,,,,,,,,,,,,,,,,,,,,,,,,,,,,,,,,,,,,,,,,,,,,,,,,,,,,,,,,,,,,,,,,,,,,,,,,,,,,,,,,,,,,,,,,,,,,,,,,,,,,,,,,,,,,,,,,,,,,,,,,,,,,,,,,,,,,,,,,,,,,,,,,,,,,,,,,,,,,,,,,,,,,,,,,,,,,,,,,,,,,,,,,,,,,,,,,,,,,,,,,,,,,,,,,,,,,,,,,,,,,,,,,,,,,,,,,,,,,,,,,,,,,,,,,,,,,,,,,,,,,,,,,,,,,,,,,,,,,,,,,,,,,,,,,,,,,,,,,,,,,,,,,,,,,,,,,,,,,,,,,,,,,,,,,,,,,,,,,,,,,,,,,,,,,,,,,,,,,,,,,,,,,,,,,,,,,,,,,,,,,,,,,,,,,,,,,,,,,,,,,,,,,,,,,,,,,,,,,,,,,,,,,,,,,,,,,,,,,,,,,,,,,,,,,,,,,,,,,,,,,,,,,,,,,,,,,,,,,,,,,,,,,,,,,,,,,,,,,,,,,,,,,
