0,1,2,3,4,5,6,7,8,9,10,11,12,13,14,15,16,17,18,19,20,21,22,23,24,25,26,27,28,29,30,31,32,33,34,35,36,37,38,39,40,41,42,43,44,45,46,47,48,49,50,51,52,53,54,55,56,57,58,59,60,61,62,63,64,65,66,67,68,69,70,71,72,73,74,75,76,77,78,79,80,81,82,83,84,85,86,87,88,89,90,91,92,93,94,95,96,97,98,99,100,101,102,103,104,105,106,107,108,109,110,111,112,113,114,115,116,117,118,119,120,121,122,123,124,125,126,127,128,129,130,131,132,133,134,135,136,137,138,139,140,141,142,143,144,145,146,147,148,149,150,151,152,153,154,155,156,157,158,159,160,161,162,163,164,165,166,167,168,169,170,171,172,173,174,175,176,177,178,179,180,181,182,183,184,185,186,187,188,189,190,191,192,193,194,195,196,197,198,199,200,201,202,203,204,205,206,207,208,209,210,211,212,213,214,215,216,217,218,219,220,221,222,223,224,225,226,227,228,229,230,231,232,233,234,235,236,237,238,239,240,241,242,243,244,245,246,247,248,249,250,251,252,253,254,255,256,257,258,259,260,261,262,263,264,265,266,267,268,269,270,271,272,273,274,275,276,277,278,279,280,281,282,283,284,285,286,287,288,289,290,291,292,293,294,295,296,297,298,299,300,301,302,303,304,305,306,307,308,309,310,311,312,313,314,315,316,317,318,319,320,321,322,323,324,325,326,327,328,329,330,331,332,333,334,335,336,337,338,339,340,341,342,343,344,345,346,347,348,349,350,351,352,353,354,355,356,357,358,359,360,361,362,363,364,365,366,367,368,369,370,371,372,373,374,375,376,377,378,379,380,381,382,383,384,385,386,387,388,389,390,391,392,393,394,395,396,397,398,399,400,401,402,403,404,405,406,407,408,409,410,411,412,413,414,415,416,417,418,419,420,421,422,423,424,425,426,427,428,429,430,431,432,433,434,435,436,437,438,439,440,441,442,443,444,445,446,447,448,449,450,451,452,453,454,455,456,457,458,459,460,461,462,463,464,465,466,467,468,469,470,471,472,473,474,475,476,477,478,479,480,481,482,483,484,485,486,487,488,489,490,491,492,493,494,495,496,497,498,499,500,501,502,503,504,505,506,507,508,509,510,511,512,513,514,515,516,517,518,519,520,521,522,523,524,525,526,527,528,529,530,531,532,533,534,535,536,537,538,539,540,541,542,543,544,545,546,547,548,549,550,551,552,553,554,555,556,557,558,559,560,561,562,563,564,565,566,567,568,569,570,571,572,573,574,575,576,577,578,579,580,581,582,583,584,585,586,587,588,589,590,591,592,593,594,595,596,597,598,599,600,601,602,603,604,605,606,607,608,609,610,611,612,613,614,615,616,617,618,619,620,621,622,623,624,625,626,627,628,629,630,631,632,633,634,635,636,637,638,639,640,641,642,643,644,645,646,647,648,649,650,651,652,653,654,655,656,657,658,659,660,661,662,663,664,665,666,667,668,669,670,671,672,673,674,675,676,677,678,679,680,681,682,683,684,685,686,687,688,689,690,691,692,693,694,695,696,697,698,699,700,701,702,703,704,705,706,707,708,709,710,711,712,713,714,715,716,717,718,719,720,721,722,723,724,725,726,727,728,729,730,731,732,733,734,735,736,737,738,739,740,741,742,743,744,745,746,747,748,749,750,751,752,753,754,755,756,757,758,759,760,761,762,763,764,765,766,767,768,769,770,771,772,773,774,775,776,777,778,779,780,781,782,783,784,785,786,787,788,789,790,791,792,793,794,795,796,797,798,799,800,801,802,803,804,805,806,807,808,809,810,811,812,813,814,815,816,817,818,819,820,821,822,823,824,825,826,827,828,829,830,831,832,833,834,835,836,837,838,839,840,841,842,843,844,845,846,847,848,849,850,851,852,853,854,855,856,857,858,859,860,861,862,863,864,865,866,867,868,869,870,871,872,873,874,875,876,877,878,879,880,881,882,883,884,885,886,887,888,889,890,891,892,893,894,895,896,897,898,899,900,901,902,903,904,905,906,907,908,909,910,911,912,913,914,915,916,917,918,919,920,921,922,923,924,925,926,927,928,929,930,931,932,933,934,935,936,937,938,939,940,941,942,943,944,945,946,947,948,949,950,951,952,953,954,955,956,957,958,959,960,961,962,963,964,965,966,967,968,969,970,971,972,973,974,975,976,977,978,979,980,981,982,983,984,985,986,987,988,989,990,991,992,993,994,995,996,997,998,999,1000,1001,1002,1003,1004,1005,1006,1007,1008,1009,1010,1011,1012,1013,1014,1015,1016,1017,1018,1019,1020,1021,1022,1023,1024,1025,1026,1027,1028,1029,1030,1031,1032,1033,1034,1035,1036,1037,1038,1039,1040,1041,1042,1043,1044,1045,1046,1047,1048,1049,1050,1051,1052,1053,1054,1055,1056,1057,1058,1059,1060,1061,1062,1063,1064,1065,1066,1067,1068,1069,1070,1071,1072,1073,1074,1075,1076,1077,1078,1079,1080,1081,1082,1083,1084,1085,1086,1087,1088,1089,1090,1091,1092,1093,1094,1095,1096,1097,1098,1099,1100,1101,1102,1103,1104,1105,1106,1107,1108,1109,1110,1111,1112,1113,1114,1115,1116,1117,1118,1119,1120,1121,1122,1123,1124,1125,1126,1127,1128,1129,1130,1131,1132,1133,1134,1135,1136,1137,1138,1139,1140,1141,1142,1143,1144,1145,1146,1147,1148,1149,1150,1151,1152,1153,1154,1155,1156,1157,1158,1159,1160,1161,1162,1163,1164,1165,1166,1167,1168,1169,1170,1171,1172,1173,1174,1175,1176,1177,1178,1179,1180,1181,1182,1183,1184,1185,1186,1187,1188,1189,1190,1191,1192,1193,1194,1195,1196,1197,1198,1199,1200,1201,1202,1203,1204,1205,1206,1207,1208,1209,1210,1211,1212,1213,1214,1215,1216,1217,1218,1219,1220,1221,1222,1223,1224,1225,1226,1227,1228,1229,1230,1231,1232,1233,1234,1235,1236,1237,1238,1239,1240,1241,1242,1243,1244,1245,1246,1247,1248,1249,1250,1251,1252,1253,1254,1255,1256,1257,1258,1259,1260,1261,1262,1263,1264,1265,1266,1267,1268,1269,1270,1271,1272,1273,1274,1275,1276,1277,1278,1279,1280,1281,1282,1283,1284,1285,1286,1287,1288,1289,1290,1291,1292,1293,1294,1295,1296,1297,1298,1299,1300,1301,1302,1303,1304,1305,1306,1307,1308,1309,1310,1311,1312,1313,1314,1315,1316,1317,1318,1319,1320,1321,1322,1323,1324,1325,1326,1327,1328,1329,1330,1331,1332,1333,1334,1335,1336,1337,1338,1339,1340,1341,1342,1343,1344,1345,1346,1347,1348,1349,1350,1351,1352,1353,1354,1355,1356,1357,1358,1359,1360,1361,1362,1363,1364,1365,1366,1367,1368,1369,1370,1371,1372,1373,1374,1375,1376,1377,1378,1379,1380,1381,1382,1383,1384,1385,1386,1387,1388,1389,1390,1391,1392,1393,1394,1395,1396,1397,1398,1399,1400,1401,1402,1403,1404,1405,1406,1407,1408,1409,1410,1411,1412,1413,1414,1415,1416,1417,1418,1419,1420,1421,1422,1423,1424,1425,1426,1427,1428,1429,1430,1431,1432,1433,1434,1435,1436,1437,1438,1439,1440,1441,1442,1443,1444,1445,1446,1447,1448,1449,1450,1451,1452,1453,1454,1455,1456,1457,1458,1459,1460,1461,1462,1463,1464,1465,1466,1467,1468,1469,1470,1471,1472,1473,1474,1475,1476,1477,1478,1479,1480,1481,1482,1483,1484,1485,1486,1487,1488,1489,1490,1491,1492,1493,1494,1495,1496,1497,1498,1499,1500,1501,1502,1503,1504,1505,1506,1507,1508,1509,1510,1511,1512,1513,1514,1515,1516,1517,1518,1519,1520,1521,1522,1523,1524,1525,1526,1527,1528,1529,1530,1531,1532,1533,1534,1535,1536,1537,1538,1539,1540,1541,1542,1543,1544,1545,1546,1547,1548,1549,1550,1551,1552,1553,1554,1555,1556,1557,1558,1559,1560,1561,1562,1563,1564,1565,1566,1567,1568,1569,1570,1571,1572,1573,1574,1575,1576,1577,1578,1579,1580,1581,1582,1583,1584,1585,1586,1587,1588,1589,1590,1591,1592,1593,1594,1595,1596,1597,1598,1599,1600,1601,1602,1603,1604,1605,1606,1607,1608,1609,1610,1611,1612,1613,1614,1615,1616,1617,1618,1619,1620,1621,1622,1623,1624,1625,1626,1627,1628,1629,1630,1631,1632,1633,1634,1635,1636,1637,1638,1639,1640,1641,1642,1643,1644,1645,1646,1647,1648,1649,1650,1651,1652,1653,1654,1655,1656,1657,1658,1659,1660,1661,1662,1663,1664,1665,1666,1667,1668,1669,1670,1671,1672,1673,1674,1675,1676,1677,1678,1679,1680,1681,1682,1683,1684,1685,1686,1687,1688,1689,1690,1691,1692,1693,1694,1695,1696,1697,1698,1699,1700,1701,1702,1703,1704,1705,1706,1707,1708,1709,1710,1711,1712,1713,1714,1715,1716,1717,1718,1719,1720,1721,1722,1723,1724,1725,1726,1727,1728,1729,1730,1731,1732,1733,1734,1735,1736,1737,1738,1739,1740,1741,1742,1743,1744,1745,1746,1747,1748,1749,1750,1751,1752,1753,1754,1755,1756,1757,1758,1759,1760,1761,1762,1763,1764,1765,1766,1767,1768,1769,1770,1771,1772,1773,1774,1775,1776,1777,1778,1779,1780,1781,1782,1783,1784,1785,1786,1787,1788,1789,1790,1791,1792,1793,1794,1795,1796,1797,1798,1799,1800,1801,1802,1803,1804,1805,1806,1807,1808,1809,1810,1811,1812,1813,1814,1815,1816,1817,1818,1819,1820,1821,1822,1823,1824,1825,1826,1827,1828,1829,1830,1831,1832,1833,1834,1835,1836,1837,1838,1839,1840,1841,1842,1843,1844,1845,1846,1847,1848,1849,1850,1851,1852,1853,1854,1855,1856,1857,1858,1859,1860,1861,1862,1863,1864,1865,1866,1867,1868,1869,1870,1871,1872,1873,1874,1875,1876,1877,1878,1879,1880,1881,1882,1883,1884,1885,1886,1887,1888,1889,1890,1891,1892,1893,1894,1895,1896,1897,1898,1899,1900,1901,1902,1903,1904,1905,1906,1907,1908,1909,1910,1911,1912,1913,1914,1915,1916,1917,1918,1919,1920,1921,1922,1923,1924,1925,1926,1927,1928,1929,1930,1931,1932,1933,1934,1935,1936,1937,1938,1939,1940,1941,1942,1943,1944,1945,1946,1947,1948,1949,1950,1951,1952,1953,1954,1955,1956,1957,1958,1959,1960,1961,1962,1963,1964,1965,1966,1967,1968,1969,1970,1971,1972,1973,1974,1975,1976,1977,1978,1979,1980,1981,1982,1983,1984,1985,1986,1987,1988,1989,1990,1991,1992,1993,1994,1995,1996,1997,1998,1999,2000,2001,2002,2003,2004,2005,2006,2007,2008,2009,2010,2011,2012,2013,2014,2015,2016,2017,2018,2019,2020,2021,2022,2023,2024,2025,2026,2027,2028,2029,2030,2031,2032,2033,2034,2035,2036,2037,2038,2039,2040,2041,2042,2043,2044,2045,2046,2047,2048,2049,2050,2051,2052,2053,2054,2055,2056,2057,2058,2059,2060,2061,2062,2063,2064,2065,2066,2067,2068,2069,2070,2071,2072,2073,2074,2075,2076,2077,2078,2079,2080,2081,2082,2083,2084,2085,2086,2087,2088,2089,2090,2091,2092,2093,2094,2095,2096,2097,2098,2099
2150.514680468761,2150.5091558053555,2150.494997908431,2150.472237192929,2150.4409050499958,2150.401033822384,2150.352656786802,2150.295808147684,2150.230523023301,2150.1568373954183,2150.0747880464255,2149.9844125581953,2149.8857493730634,2149.7788378443197,2149.6637182538884,2149.540431815456,2149.409020660613,2149.26952781166,2149.121997146757,2148.966473331047,2148.8030017234873,2148.6316283259293,2148.4523997874226,2148.2653634138496,2148.070567154482,2147.8680595658693,2147.657889753057,2147.4401073031495,2147.2147622655734,2146.981905227335,2146.741587421587,2146.4938607356344,2146.2387776167434,2145.9763909926096,2145.706754240554,2145.4299211648854,2145.145945966193,2144.8548832106844,2144.556787829597,2144.251715184377,2143.9397211574674,2143.6208621688907,2143.2951951149853,2142.962777324628,2142.623666578794,2142.277921137465,2141.925599686649,2141.5667612193215,2141.2014649452053,2140.8297702456343,2140.4517366361624,2140.067423739766,2139.67689127794,2139.2801990715634,2138.8774070491218,2138.46857526875,2138.0537639662907,2137.6330336179917,2137.2064449679474,2136.7740589837663,2136.335936788747,2135.8921396663072,2135.4427291362617,2134.9877669942175,2134.5273152414616,2134.0614359678243,2133.5901913124726,2133.1136435131857,2132.6318549581015,2132.1448882131485,2131.652806031264,2131.155671314978,2130.653547042527,2130.1464962146833,2129.6345818332675,2129.117866880503,2128.596414283388,2128.07028687283,2127.539547375667,2127.0042584761036,2126.4644829088156,2125.920283496506,2125.371723123384,2124.8188647103,2124.2617712203346,2123.7005056769895,2123.1351311775456,2122.5657108991372,2121.992308082544,2121.414985956365,2120.8338076312007,2120.248836062826,2119.660134094508,2119.067764505838,2118.4717900506294,2117.8722734842977,2117.269277540137,2116.662864861403,2116.0530979618147,2115.440039250588,2114.8237510696626,2114.2042956603545,2113.581735068769,2112.9561310922104,2112.32754532055,2111.696039212095,2111.061674109031,2110.4245111883733,2109.7846114173967,2109.1420355395157,2108.4968440682956,2107.849097269309,2107.198855130244,2106.5461773342736,2105.8911232443984,2105.2337519113335,2104.57412212888,2103.9122925164947,2103.2483215690127,2102.5822676621606,2101.914189036174,2101.244143747784,2100.572189601528,2099.8983841135214,2099.2227845178563,2098.5454477831404,2097.8664306290557,2097.1857895473904,2096.5035808242965,2095.819860559315,2095.1346846880606,2094.4481090292584,2093.7601893468045,2093.070981381812,2092.380540847741,2091.688923412562,2090.9961846626647,2090.3023800606916,2089.607564950033,2088.911794605988,2088.215124256098,2087.517609007985,2086.819303728098,2086.120262973217,2085.420540992955,2084.720191754581,2084.01926898002,2083.317826195029,2082.615916766199,2081.913593917685,2081.210910747119,2080.507920263439,2079.8046754401335,2079.101229252264,2078.397634689144,2077.693944753224,2076.9902124419386,2076.2864907044022,2075.5828323680785,2074.879290054903,2074.175916136759,2073.4727627505945,2072.7698818297636,2072.0673250939853,2071.3651440015697,2070.663389719492,2069.962113136066,2069.2613648898405,2068.5611953822663,2067.8616547721026,2067.162792992132,2066.4646598389027,2065.7673051046577,2065.0707786532726,2064.375130422348,2063.6804104054154,2062.9866686280548,2062.293955106963,2061.602319794412,2060.9118125231043,2060.2224829846987,2059.5343807643135,2058.8475553936883,2058.16205635565,2057.4779330398846,2056.795234706006,2056.1140104685196,2055.4343092830004,2054.7561799261694,2054.079670975964,2053.404830817968,2052.7317077126895,2052.060349888791,2051.390805570179,2050.723122931272,2050.0573500494143,2049.3935348657988,2048.7317251480004,2048.071968489416,2047.414312346829,2046.7588040840467,2046.1054910301284,2045.4544205335437,2044.8056399307095,2044.159196437835,2043.5151370670922,2042.8735085890241,2042.2343575156287,2041.5977301256207,2040.9636725265968,2040.3322307009573,2039.7034505189472,2039.0773777488405,2038.4540580934795,2037.8335372450524,2037.215860915511,2036.6010748182837,2035.9892246110228,2035.3803558087156,2034.774513689879,2034.1717432587227,2033.5720893070998,2032.975596517007,2032.3823094936897,2031.7922727220437,2031.2055305274614,2030.6221270719539,2030.0421063506565,2029.4655121501753,2028.8923879801355,2028.3227770286449,2027.7567221554646,2027.1942659086903,2026.6354505722431,2026.0803182332172,2025.5289108260795,2024.9812701403287,2024.4374378082532,2023.8974552776515,2023.3613637772241,2022.8292042892465,2022.3010175209952,2021.7768438838614,2021.2567235292352,2020.7406964330517,2020.2288024454176,2019.7210812598817,2019.2175723469743,2018.7183149218004,2018.2233479546119,2017.7327101817548,2017.246440091033,2016.7645758932463,2016.2871555042493,2015.814216542806,2015.3457963296314,2014.8819318742324,2014.4226598519833,2013.9680165844172,2013.5180380284116,2013.0727597864438,2012.632217163065,2012.1964452550194,2011.7654790271324,2011.3393533557103,2010.9181030382344,2010.501762756774,2010.0903670028229,2009.6839499874993,2009.282545560235,2008.8861871740858,2008.4949079216074,2008.1087405934154,2007.72771767748,2007.3518712999648,2006.9812331850987,2006.615834669789,2006.2557067555213,2005.9008801870089,2005.5513855385104,2005.2072532615748,2004.8685136743252,2004.5351969141968,2004.2073328719762,2003.8849511241815,2003.5680808998939,2003.2567510998908,2002.9509903344047,2002.6508269300125,2002.3562889044376,2002.06740395227,2001.784199467164,2001.5067025826609,2001.234940199994,2000.968938996381,2000.7087254271935,2000.4543257293067,2000.2057659045306,1999.96307164012,1999.726268186645,1999.4953803015492,1999.2704323289888,1999.051448351041,1998.8384522930248,1998.6314679569755,1998.430519007609,1998.2356288937403,1998.0468207335543,1997.8641172574469,1997.6875408230464,1997.5171134305988,1997.3528566957132,1997.194791813955,1997.042939586254,1996.89732048728,1996.757954677787,1996.6248619495707,1996.498061684179,1996.3775728614846,1996.2634140864732,1996.155603596517,1996.0541592475108,1995.9590985125417,1995.8704385231204,1995.7881961330884,1995.7123879532749,1995.6430303483774,1995.580139411489,1995.5237308972,1995.4738201213897,1995.430421883695,1995.3935504321319,1995.3632194544514,1995.3394420913614,1995.3222309598498,1995.3115981646981,1995.3075552953478,1995.3101134206947,1995.3192830862758,1995.335074323178,1995.3574966917954,1995.3865593494806,1995.4222711015202,1995.4646404350246,1995.513675552371,1995.5693843920253,1995.6317746314694,1995.7008536779135,1995.776628638275,1995.8591062619294,1995.948292859076,1996.0441942150032,1996.1468155339267,1996.2561614107772,1996.3722358159298,1996.4950421091,1996.6245830787554,1996.7608609685014,1996.903877475428,1997.053633743547,1997.2101303807126,1997.3733674945713,1997.5433447264365,1997.720061292423,1997.9035160249432,1998.0937073634464,1998.2906332964271,1998.4942913094776,1998.7046783454657,1998.9217907748136,1999.1456244184744,1999.3761746175232,1999.6134362698403,1999.8574037864214,2000.1080710123451,2000.3654311911105,2000.6294769808612,2000.9002004819254,2001.177593272833,2001.4616464495364,2001.752350625232,2002.0496958903798,2002.3536717694326,2002.6642671690045,2002.9814703150396,2003.30526871834,2003.6356491765619,2003.9725977794183,2004.3160998992314,2004.6661401859044,2005.0227026020189,2005.3857704887205,2005.7553266035718,2006.1313531023716,2006.5138315116017,2006.9027427633125,2007.298067283114,2007.6997850379596,2008.1078754913854,2008.522317524223,2008.9430894173447,2009.3701689000948,2009.8035331889378,2010.2431589859057,2010.689022443733,2011.141099083483,2011.5993636845453,2012.0637902244962,2012.5343519089863,2013.0110212283653,2013.4937699416462,2013.9825689910492,2014.4773884408532,2014.9781974794957,2015.484964445573,2015.9976568359489,2016.5162412931331,2017.0406835930291,2017.5709486423782,2018.1070004818466,2018.648802292322,2019.1963164019805,2019.7495043063025,2020.3083267343009,2020.8727437268835,2021.4427146202436,2022.0181979375227,2022.599151301127,2023.1855313973472,2023.777293964066,2024.3743938096743,2024.976784857507,2025.5844201740206,2026.1972519652875,2026.8152315527666,2027.4383093287538,2028.0664347016566,2028.699556077749,2029.33762092201,2029.9805758420518,2030.6283665709964,2031.2809378525412,2031.9382333730591,2032.6001958251152,2033.2667670366802,2033.9378880544673,2034.6134991594856,2035.2935398610607,2035.9779488920437,2036.6666641893858,2037.3596228296492,2038.0567609344703,2038.758013627111,2039.4633150973114,2040.1725987119605,2040.8857970494666,2041.6028418480898,2042.3236639510053,2043.0481932708128,2043.7763587613288,2044.5080884161273,2045.243309293026,2045.9819475442264,2046.7239284659086,2047.4691765445548,2048.217615413186,2048.969167727245,2049.723755098474,2050.4812981736154,2051.2417167670474,2052.00492987859,2052.770855590789,2053.539410996617,2054.310512235476,2055.084074580713,2055.8600124962823,2056.63823964714,2057.4186688917753,2058.2012122674214,2058.985780978498,2059.772285414251,2060.5606351899132,2061.3507391712124,2062.1425054660126,2062.9358414049834,2063.730653536461,2064.5268476354977,2065.324328723047,2066.1230011155653,2066.922768496923,2067.7235339619024,2068.5252000191244,2069.3276685959922,2070.1308410862293,2070.9346184148603,2071.73890104598,2072.5435889300675,2073.348581481724,2074.153777658436,2074.9590760904493,2075.7643751453274,2076.5695729097392,2077.3745671643537,2078.179255390378,2078.9835348000347,2079.787302384894,2080.5904549686693,2081.392889240543,2082.1945017702387,2082.9951890275615,2083.7948474193868,2084.593373333558,2085.3906631754803,2086.1866134144675,2086.981120646318,2087.7740816400787,2088.5653933479025,2089.3549528755557,2090.1426574306247,2090.92840429589,2091.7120908599145,2092.493614678076,2093.2728735129176,2094.0497653424663,2094.8241883766746,2095.5960411323053,2096.365222554893,2097.1316321240865,2097.8951699147897,2098.655736613686,2099.413233484668,2100.167562318461,2100.918625432572,2101.666325720355,2102.4105666919822,2103.151252494744,2103.888287941486,2104.621578565848,2105.35103068929,2106.076551470699,2106.798048948716,2107.5154320901747,2108.2286108195003,2108.937496020541,2109.6419995299134,2110.34203413037,2111.0375135450113,2111.728352435987,2112.4144664068776,2113.095772008354,2113.772186756038,2114.443629170708,2115.110018846937,2115.771276531905,2116.427324160429,2117.0780848133436,2117.723482638186,2118.363442796288,2118.997891448441,2119.626755764539,2120.2499639685493,2120.867445416386,2121.4791306762518,2122.084951590358,2122.684841293265,2123.278734163324,2123.8665657611696,2124.4482728631924,2125.0237935806535,2125.593067439891,2126.1560353737173,2126.7126396743097,2127.2628239538553,2127.80653312187,2128.3437133840607,2128.874312278961,2129.398278733274,2129.91556308277,2130.426117052656,2130.9298937497583,2131.426847708296,2131.9169349515278,2132.40011298041,2132.8763406913035,2133.345578304674,2133.807787320621,2134.262930484186,2134.7109717855983,2135.1518764946427,2135.5856111800704,2136.012143686448,2136.431443107811,2136.8434798287144,2137.24822562172,2137.64565370355,2138.035738700004,2138.418456562641,2138.7937844948437,2139.161700905109,2139.5221853839207,2139.8752186977126,2140.220782810057,2140.558860965385,2140.8894378137325,2141.212499492121,2141.5280336402648,2141.836029366826,2142.136477137015,2142.4293686091146,2142.714696539624,2142.992454811379,2143.26263852542,2143.5252440900676,2143.7802692844907,2144.0277132776914,2144.2675765818153,2144.4998609819804,2144.72456952823,2144.941706591226,2145.151277900556,2145.353290525873,2145.5477528309093,2145.734674439708,2145.9140662231894,2146.0859403007744,2146.2503100627555,2146.4071901963616,2146.556596671709,2146.698546690879,2146.8330586565207,2146.960152189186,2147.079848147555,2147.1921685740544,2147.297136579265,2147.3947762580206,2147.4851126603276,2147.5681717907305,2147.643980648297,2147.7125672970783,2147.7739609037535,2147.8281917071617,2147.875290956236,2147.9152908739466,2147.948224656187,2147.974126486116,2147.9930315680253,2148.004976153544,2148.009997484713,,,,,,,,,,,,,,,,,,,,,,,,,,,,,,,,,,,,,,,,,,,,,,,,,,,,,,,,,,,,,,,,,,,,,,,,,,,,,,,,,,,,,,,,,,,,,,,,,,,,,,,,,,,,,,,,,,,,,,,,,,,,,,,,,,,,,,,,,,,,,,,,,,,,,,,,,,,,,,,,,,,,,,,,,,,,,,,,,,,,,,,,,,,,,,,,,,,,,,,,,,,,,,,,,,,,,,,,,,,,,,,,,,,,,,,,,,,,,,,,,,,,,,,,,,,,,,,,,,,,,,,,,,,,,,,,,,,,,,,,,,,,,,,,,,,,,,,,,,,,,,,,,,,,,,,,,,,,,,,,,,,,,,,,,,,,,,,,,,,,,,,,,,,,,,,,,,,,,,,,,,,,,,,,,,,,,,,,,,,,,,,,,,,,,,,,,,,,,,,,,,,,,,,,,,,,,,,,,,,,,,,,,,,,,,,,,,,,,,,,,,,,,,,,,,,,,,,,,,,,,,,,,,,,,,,,,,,,,,,,,,,,,,,,,,,,,,,,,,,,,,,,,,,,,,,,,,,,,,,,,,,,,,,,,,,,,,,,,,,,,,,,,,,,,,,,,,,,,,,,,,,,,,,,,,,,,,,,,,,,,,,,,,,,,,,,,,,,,,,,,,,,,,,,,,,,,,,,,,,,,,,,,,,,,,,,,,,,,,,,,,,,,,,,,,,,,,,,,,,,,,,,,,,,,,,,,,,,,,,,,,,,,,,,,,,,,,,,,,,,,,,,,,,,,,,,,,,,,,,,,,,,,,,,,,,,,,,,,,,,,,,,,,,,,,,,,,,,,,,,,,,,,,,,,,,,,,,,,,,,,,,,,,,,,,,,,,,,,,,,,,,,,,,,,,,,,,,,,,,,,,,,,,,,,,,,,,,,,,,,,,,,,,,,,,,,,,,,,,,,,,,,,,,,,,,,,,,,,,,,,,,,,,,,,,,,,,,,,,,,,,,,,,,,,,,,,,,,,,,,,,,,,,,,,,,,,,,,,,,,,,,,,,,,,,,,,,,,,,,,,,,,,,,,,,,,,,,,,,,,,,,,,,,,,,,,,,,,,,,,,,,,,,,,,,,,,,,,,,,,,,,,,,,,,,,,,,,,,,,,,,,,,,,,,,,,,,,,,,,,,,,,,,,,,,,,,,,,,,,,,,,,,,,,,,,,,,,,,,,,,,,,,,,,,,,,,,,,,,,,,,,,,,,,,,,,,,,,,,,,,,,,,,,,,,,,,,,,,,,,,,,,,,,,,,,,,,,,,,,,,,,,,,,,,,,,,,,,,,,,,,,,,,,,,,,,,,,,,,,,,,,,,,,,,,,,,,,,,,,,,,,,,,,,,,,,,,,,,,,,,,,,,,,,,,,,,,,,,,,,,,,,,,,,,,,,,,,,,,,,,,,,,,,,,,,,,,,,,,,,,,,,,,,,,,,,,,,,,,,,,,,,,,,,,,,,,,,,,,,,,,,,,,,,,,,,,,,,,,,,,,,,,,,,,,,,,,,,,,,,,,,,,,,,,,,,,,,,,,,,,,,,,,,,,,,,,,,,,,,,,,,,,,,,,,,,
2043.0557117145452,2043.05426439899,2043.0501789280297,2043.0434607071556,2043.0341154332496,2043.022149109233,2043.0075680234368,2042.9903787241183,2042.970588047145,2042.9482031745279,2042.923231626437,2042.8956811822316,2042.8655598274745,2042.8328757727731,2042.7976375022552,2042.7598537965002,2042.7195337242492,2042.6766866292608,2042.6313221196192,2042.5834500619253,2042.5330805978213,2042.480224178786,2042.424891581068,2042.3670938731652,2042.3068423601962,2042.2441485550644,2042.179024183717,2042.111481194478,2042.0415317576592,2041.969188261941,2041.8944633148276,2041.817369747173,2041.7379206144774,2041.656129188463,2041.5720089397362,2041.4855735156007,2041.3968367186935,2041.3058124941583,2041.2125149253523,2041.1169582324092,2041.0191567728439,2040.9191250442027,2040.8168776871307,2040.7124294896732,2040.6057953891573,2040.4969904615086,2040.3860299008472,2040.272929006805,2040.1577031864633,2040.04036796523,2039.9209390038154,2039.7994321172512,2039.6758632914887,2039.5502487048786,2039.4226047472305,2039.2929480043992,2039.161295212457,2039.02766322486,2038.8920690064065,2038.7545296324813,2038.6150622753305,2038.4736841810163,2038.3304126504433,2038.1852650216128,2038.038258650673,2037.8894109063692,2037.7387391795196,2037.5862608961509,2037.4319935367348,2037.2759546590858,2037.1181619058534,2036.9586329949875,2036.7973857126474,2036.6344379182951,2036.4698075489875,2036.3035126009595,2036.1355710933674,2035.9660010555742,2035.794820570434,2035.6220478354371,2035.4477011605766,2035.2717989037442,2035.0943594296677,2034.9154011370179,2034.734942501349,2034.5530020486726,2034.36959826656,2034.1847495331056,2033.9984740787647,2033.8107899680783,2033.6217151365854,2033.4312674739947,2033.2394648720694,2033.0463251934061,2032.8518662061429,2032.6561055543789,2032.4590607720143,2032.2607493079565,2032.0611885622923,2031.860395925305,2031.6583887755255,2031.4551844376233,2031.2508001488266,2031.045253048476,2030.8385601781338,2030.6307384942777,2030.4218048907405,2030.2117762073617,2030.0006692057834,2029.7885005383569,2029.5752867657416,2029.3610444191386,2029.1457900426522,2028.9295401881893,2028.712311383994,2028.4941200938563,2028.274982677546,2028.0549153739719,2027.8339343208604,2027.6120555882367,2027.3892951863495,2027.1656690464208,2026.9411929985597,2026.7158827460316,2026.4897538326359,2026.262821621447,2026.0351012906046,2025.8066078331613,2025.5773560520718,2025.3473605624856,2025.1166358289388,2024.8851962285153,2024.6530560860188,2024.4202296519431,2024.186731055295,2023.9525742807605,2023.717773176308,2023.4823414701248,2023.2462927972952,2023.009640726889,2022.772398752134,2022.5345802465115,2022.2961984397366,2022.0572664448632,2021.8177973072975,2021.5778040258251,2021.3372995407763,2021.0962967254407,2020.854808401829,2020.6128473625224,2020.3704263641268,2020.1275580943566,2019.884255155352,2019.6405300895988,2019.3963954224835,2019.1518636736132,2018.9069473344637,2018.6616588492743,2018.4160106129873,2018.170014973651,2017.9236842291455,2017.6770306194492,2017.4300663172824,2017.1828034102352,2016.9352538828953,2016.6874296298138,2016.4393424964658,2016.1910043011449,2015.9424268081736,2015.6936216820475,2015.4446004776883,2015.195374669647,2014.945955685367,2014.696354942098,2014.4465838817841,2014.1966539597017,2013.9465765900902,2013.69636311248,2013.4460248103542,2013.1955729529386,2012.9450188195476,2012.694373700803,2012.4436488893068,2012.1928556557077,2011.9420052243638,2011.6911087928215,2011.4401775906495,2011.1892229159587,2010.9382561183681,2010.6872885620912,2010.4363316194513,2010.1853966968524,2009.934495250203,2009.6836387626086,2009.432838700559,2009.1821064798548,2008.9314534501964,2008.6808908850435,2008.4304299605246,2008.1800817420512,2007.9298572313826,2007.6797674627833,2007.429823556578,2007.1800366789873,2006.9304179520575,2006.6809783806323,2006.431728815024,2006.18267993965,2005.9338422835763,2005.6852262448547,2005.4368421181023,2005.1887001188368,2004.9408104053732,2004.693183112893,2004.4458283907547,2004.1987564008568,2003.9519772786714,2003.705501105636,2003.4593379075106,2003.2134976571954,2002.967990269024,2002.7228255938703,2002.4780134353457,2002.2335635834424,2001.9894858315402,2001.7457899544613,2001.5024856662383,2001.259582592484,2001.0170902646692,2000.775018136709,2000.5333756465836,2000.2921723059494,2000.0514177536384,1999.8111217600642,1999.5712942076882,1999.3319450386182,1999.093084178675,1998.8547214886376,1998.6168667552452,1998.3795296890926,1998.1427199054838,1997.9064468910803,1997.6707199713587,1997.4355482873962,1997.2009407953715,1996.9669063086633,1996.733453561853,1996.5005912430777,1996.2683279870264,1996.0366723650905,1995.8056328901177,1995.5752180308996,1995.3454362331436,1995.1162959420674,1994.8878056124097,1994.6599736953121,1994.4328086215457,1994.2063188192178,1993.9805127619036,1993.7553989847227,1993.530986016427,1993.3072822672639,1993.0842959655167,1992.862035158959,1992.6405077369918,1992.4197214661665,1992.1996840362526,1991.9804030860118,1991.7618862025997,1991.5441409237985,1991.3271747670265,1991.1109952607715,1990.895609920036,1990.681026172276,1990.467251309709,1990.2542925012551,1990.0421568227305,1989.8308512517376,1989.6203826288784,1989.4107576396495,1989.2019828535417,1988.994064798022,1988.7870100231805,1988.580825141217,1988.3755168460427,1988.1710919207037,1987.9675572253254,1987.764919636771,1987.5631859554317,1987.3623628436555,1987.1624568128593,1986.9634742284813,1986.7654213177714,1986.5683041787915,1986.3721287975234,1986.176901094182,1985.9826269861587,1985.7893124168754,1985.5969633436587,1985.4055857215476,1985.2151854956173,1985.0257685896447,1984.8373408813775,1984.6499081709026,1984.4634761709133,1984.278050543224,1984.0936369616486,1983.9102411570211,1983.7278689334046,1983.5465261623842,1983.3662187444904,1983.1869525531717,1983.0087334099985,1982.8315670975933,1982.6554593697126,1982.4804159333291,1982.3064424197514,1982.1335443792693,1981.9617273009455,1981.7909966348352,1981.6213578166332,1981.4528162988045,1981.2853775744054,1981.119047187915,1980.953830736321,1980.7897338580296,1980.6267622083772,1980.4649214233698,1980.3042170809817,1980.1446546811085,1979.9862396535075,1979.8289773835822,1979.6728732474903,1979.5179326480552,1979.3641610352545,1979.211563906009,1979.0601467836761,1978.9099151654887,1978.7608744513193,1978.6130299053018,1978.4663866758679,1978.320949834437,1978.1767243731233,1978.0337151622682,1977.8919269250055,1977.7513642605034,1977.6120316931651,1977.47393371249,1977.3370747938573,1977.2014594026684,1977.0670919777901,1976.9339769170176,1976.8021186136489,1976.6715215352467,1976.5421902679054,1976.4141294838298,1976.287343876044,1976.1618381300107,1976.0376169394665,1975.9146850149446,1975.7930470484723,1975.6727076612215,1975.5536713945605,1975.435942746944,1975.3195262026795,1975.2044262290408,1975.0906472676918,1974.9781937549074,1974.8670701657243,1974.757281044288,1974.6488310074133,1974.5417247339378,1974.4359669443281,1974.331562375816,1974.2285157660442,1974.1268318464417,1974.026515345327,1973.927571014533,1973.8300036730652,1973.7338182284345,1973.6390196505129,1973.5456129133302,1973.4536029307756,1973.362994502432,1973.273792289831,1973.1860008352974,1973.099624602289,1973.0146680051776,1972.9311354211693,1972.8490312014048,1972.768359701524,1972.6891253170913,1972.6113324776265,1972.534985600869,1972.4600890713732,1972.3866472872562,1972.3146647357403,1972.2441460179737,1972.175095817039,1972.1075188537839,1972.041419824383,1971.9768033322111,1971.9136738898958,1971.8520359911413,1971.7918941715907,1971.7332530380309,1971.6761172821718,1971.6204916615527,1971.5663809524447,1971.51378991248,1971.462723257878,1971.413185637416,1971.365181600302,1971.3187155660692,1971.2737918155556,1971.2304145208225,1971.1885878038695,1971.1483158002063,1971.1096027094336,1971.0724528166008,1971.0368704875896,1971.002860152314,1970.9704262672215,1970.939573267232,1970.9103055513444,1970.8826275055565,1970.856543523745,1970.832058011498,1970.809175375736,1970.7878999907898,1970.7682361494585,1970.7501880302843,1970.7337596879433,1970.7189550647224,1970.705778044181,1970.6942325336054,1970.6843225144037,1970.6760520365003,1970.6694251839153,1970.664446034246,1970.6611186221962,1970.659446912831,1970.6594347736052,1970.6610859386706,1970.664403979664,1970.6693922902814,1970.67605409234,1970.6843924844331,1970.6944105218106,1970.7061112844865,1970.719497916527,1970.734573629626,1970.751341650681,1970.7698051332502,1970.7899670876611,1970.811830347216,1970.835397563599,1970.860671237567,1970.887653765861,1970.9163474588916,1970.9467545247426,1970.9788770608698,1971.0127170823039,1971.0482765685042,1971.0855574891045,1971.1245618020598,1971.1652914501587,1971.2077483721296,1971.2519345177934,1971.2978518445436,1971.34550229596,1971.3948877852843,1971.446010191052,1971.498871353933,1971.5534730650395,1971.6098170485425,1971.6679049495515,1971.727738329287,1971.7893186671363,1971.8526473781183,1971.9177258412872,1971.9845554143335,1972.0531374201803,1972.1234731254506,1972.195563744891,1972.2694104705324,1972.3450144971878,1972.4223770406354,1972.5014993582256,1972.5823827678516,1972.6650286604206,1972.7494384956753,1972.8356137627106,1972.923555921813,1973.0132663763136,1973.1047464813487,1973.1979975595054,1973.2930209164567,1973.3898178504987,1973.4883896275915,1973.5887374279878,1973.6908623147585,1973.7947652497762,1973.9004471251026,1974.0079087606923,1974.117150868815,1974.2281740257697,1974.3409786642774,1974.4555650800648,1974.571933460342,1974.6900839268765,1974.8100165583628,1974.9317313726165,1975.0552282872518,1975.1805070864355,1975.3075674018269,1975.4364087073034,1975.5670303307115,1975.699431475751,1975.8336112389786,1975.9695686174673,1976.1073025192968,1976.2468117959381,1976.3880952831491,1976.5311518049366,1976.6759801393712,1976.8225789912872,1976.9709469893135,1977.1210826849228,1977.2729845271253,1977.4266508188941,1977.582079695488,1977.7392691502303,1977.8982170805637,1978.0589213048804,1978.221379545669,1978.3855894089945,1978.5515483664065,1978.7192537453511,1978.8887027589294,1979.0598925672878,1979.2328203101922,1979.4074830763004,1979.583877844428,1979.7620014548252,1979.9418506173643,1980.123421921743,1980.3067118330716,1980.4917166797388,1980.678432640864,1980.8668557361689,1981.0569818215208,1981.2488065929836,1981.442325594508,1981.6375342199347,1981.8344277084898,1982.033001139462,1982.2332494268665,1982.4351673161286,1982.6387493908971,1982.8439900879623,1983.0508836959348,1983.259424311313,1983.4696057864267,1983.6814217524245,1983.8948657112253,1984.1099310990564,1984.3266112830395,1984.5448995216582,1984.7647889081734,1984.9862723107854,1985.2093423480785,1985.4339914289683,1985.6602118198182,1985.8879956657,1986.1173349601215,1986.348221510685,1986.5806469096033,1986.8146025058302,1987.0500794035518,1987.2870684870393,1987.525560442246,1987.7655457686576,1988.0070147968117,1988.2499577224444,1988.4943646483323,1988.7402256038138,1988.9875305241337,1989.2362692090876,1989.4864312922045,1989.7380062277734,1989.9909832835383,1990.2453515285172,1990.501099824057,1990.758216841657,1991.0166911026902,1991.2765110002672,1991.5376647821406,1991.8001405088528,1992.063926004978,1992.3290088152241,1992.5953761771614,1992.8630150085467,1993.131911908434,1993.4020531911412,1993.673424944143,1993.9460130612101,1994.2198032280692,1994.4947808784402,1994.7709311370822,1995.0482387636423,1995.3266881309833,1995.606263265578,1995.8869479154841,1996.1687255761187,1996.4515794669323,1996.7354925202494,1997.0204474273055,1997.3064267106506,1997.5934127515104,1997.8813877603413,1998.1703337327742,1998.4602324148816,1998.7510652931883,1999.0428136272744,1999.3354584925164,1999.6289807619653,1999.923361031418,2000.2185795769406,2000.5146163975865,2000.811451301925,2001.1090639677884,2001.4074339598194,2001.7065407251052,2002.0063635693316,2002.3068816138648,2002.608073743497,2002.9099185574325,2003.2123943466413,2003.515479112591,2003.8191506046383,2004.123386337535,2004.4281635841837,2004.7334593614894,2005.0392504101267,2005.3455131718645,2005.6522237859601,2005.9593581050208,2006.2668917092428,2006.5747999145597,2006.8830577747035,2007.191640062978,2007.5005212377991,2007.8096754293342,2008.1190764772555,2008.4286980005445,2008.7385134555304,2009.048496167147,2009.3586193459914,2009.6688561078142,2009.9791794950381,2010.2895624796122,2010.5999779459867,2010.9103986708403,2011.2207972967242,2011.5311462983996,2011.8414179597269,2012.1515843663765,2012.461617406249,2012.7714887771992,2013.0811700044983,2013.390632468033,2013.6998474319407,2014.0087860576136,2014.3174193887075,2014.6257183333144,2014.9336536879234,2015.2411961966839,2015.5483165887597,2015.8549855694368,2016.1611738027111,2016.4668519368877,2016.7719906662892,2017.0765607661933,2017.38053306813,2017.6838784071915,2017.986567587602,2018.2885713746625,2018.589860498873,2018.8904056722274,2019.1901776146592,2019.4891470764326,2019.787284850397,2020.084561776538,2020.3809487416645,2020.6764166774783,2020.9709365586525,2021.2644794009118,2021.5570162692638,2021.8485183166654,2022.1389568502832,2022.4283033993843,2022.7165297674107,2023.003608056067,2023.289510657769,2023.5742102233519,2023.8576796034158,2024.1398917775048,2024.420819818594,2024.7004369208737,2024.9787164539152,2025.2556319819525,2025.531157243007,2025.8052661316738,2026.0779327086914,2026.349131227971,2026.618836168904,2026.887022265437,2027.1536645201434,2027.4187381988309,2027.682218815829,2027.9440821209073,2028.2043040906688,2028.4628609264446,2028.7197290631523,2028.9748851822237,2029.228306211561,2029.4799693121138,2029.7298518632522,2029.9779314457155,2030.2241858318766,2030.4685930165886,2030.7111312804993,2030.9517792274146,2031.1905157681176,2031.4273200831042,2031.662171608051,2031.89505004526,2032.1259353755233,2032.3548078614801,2032.5816480384087,2032.8064366737933,2033.0291547054005,2033.249783215476,2033.4683034840714,2033.684697076057,2033.898945868915,2034.1110320140087,2034.3209379096324,2034.5286462312802,2034.7341399911404,2034.9374025773186,2035.1384177626464,2035.3371696972767,2035.5336428830356,2035.7278221331842,2035.9196925370634,2036.1092394381421,2036.2964484307427,2036.481305387211,2036.6637965041698,2036.8439083370208,2037.0216278137716,2037.1969422350846,2037.369839259734,2037.5403068779078,2037.7083333808753,2037.873907334319,2038.037017561017,2038.1976531296239,2038.3558033499612,2038.5114577898266,2038.664606308858,2038.8152390847065,2038.9633466294865,2039.1089198009715,2039.2519497935168,2039.3924281107438,2039.5303465447312,2039.6656971686123,2039.7984723385196,2039.9286647121796,2040.0562672792926,2040.181273371234,2040.303676623308,2040.4234709163234,2040.540650356326,2040.6552092973518,2040.7671423573004,2040.876444398529,2040.9831104910172,2041.0871358889374,2041.1885160263107,2041.2872465293153,2041.3833232614736,2041.4767423818394,2041.567500352489,2041.6555938932868,2041.7410199520828,2041.823775727268,2041.9038587155,2041.981266741999,2042.0559979657085,2042.1280508698674,2042.197424231907,2042.2641170791671,2042.328128659234,2042.389458432204,2042.448106069864,2042.5040714536683,2042.557354671114,2042.6079560105077,2042.655875955347,2042.7011151860195,2042.743674599777,2042.7835553433058,2042.8207588384148,2042.855286794355,2042.8871412083881,2042.9163243505525,2042.9428387378948,2042.9666871131844,2042.9878724333817,2043.0063978662363,2043.0222667954251,2043.035482833414,2043.0460498408297,2043.0539719413846,2043.0592535104486,2043.0618991417289,,,,,,,,,,,,,,,,,,,,,,,,,,,,,,,,,,,,,,,,,,,,,,,,,,,,,,,,,,,,,,,,,,,,,,,,,,,,,,,,,,,,,,,,,,,,,,,,,,,,,,,,,,,,,,,,,,,,,,,,,,,,,,,,,,,,,,,,,,,,,,,,,,,,,,,,,,,,,,,,,,,,,,,,,,,,,,,,,,,,,,,,,,,,,,,,,,,,,,,,,,,,,,,,,,,,,,,,,,,,,,,,,,,,,,,,,,,,,,,,,,,,,,,,,,,,,,,,,,,,,,,,,,,,,,,,,,,,,,,,,,,,,,,,,,,,,,,,,,,,,,,,,,,,,,,,,,,,,,,,,,,,,,,,,,,,,,,,,,,,,,,,,,,,,,,,,,,,,,,,,,,,,,,,,,,,,,,,,,,,,,,,,,,,,,,,,,,,,,,,,,,,,,,,,,,,,,,,,,,,,,,,,,,,,,,,,,,,,,,,,,,,,,,,,,,,,,,,,,,,,,,,,,,,,,,,,,,,,,,,,,,,,,,,,,,,,,,,,,,,,,,,,,,,,,,,,,,,,,,,,,,,,,,,,,,,,,,,,,,,,,,,,,,,,,,,,,,,,,,,,,,,,,,,,,,,,,,,,,,,,,,,,,,,,,,,,,,,,,,,,,,,,,,,,,,,,,,,,,,,,,,,,,,,,,,,,,,,,,,,,,,,,,,,,,,,,,,,,,,,,,,,,,,,,,,,,,,,,,,,,,,,,,,,,,,,,,,,,,,,,,,,,,,,,,,,,,,,,,,,,,,,,,,,,,,,,,,,,,,,,,,,,,,,,,,,,,,,,,,,,,,,,,,,,,,,,,,,,,,,,,,,,,,,,,,,,,,,,,,,,,,,,,,,,,,,,,,,,,,,,,,,,,,,,,,,,,,,,,,,,,,,,,,,,,,,,,,,,,,,,,,,,,,,,,,,,,,,,,,,,,,,,,,,,,,,,,,,,,,,,,,,,,,,,,,,,,,,,,,,,,,,,,,,,,,,,,,,,,,,,,,,,,,,,,,,,,,,,,,,,,,,,,,,,,,,,,,,,,,,,,,,,,,,,,,,,,,,,,,,,,,,,,,,,,,,,,,,,,,,,,,,,,,,,,,,,,,,,,,,,,,,,,,,,,,,,,,,,,,,,,,,,,,,,,,,,,,,,,,,,,,,,,,,,,,,,,,,,,,,,,,,,,,,,,,,,,,,,,,,,,,,,,,,,,,,,,,,,,,,,,,,,,,,,,,,,,,,,,,,,,,,,,,,,,,,,,,,,,,,,,,,,,,,,,,,,,,,,,,,,,,,,,,,,,,,,,,,,,,,,,,,,,,,,,,,,,,,,,,,,,,,,,,,,,,,,,,,,,,,,,,,,,,,,,
2075.3943551395682,2075.3931885008656,2075.3896574068267,2075.3837649675625,2075.375514427079,2075.36490916617,2075.3519527025105,2075.3366486873824,2075.3190009014425,2075.2990132553873,2075.2766897953406,2075.252034707129,2075.2250523176717,2075.1957470951747,2075.1641236481996,2075.1301867238626,2075.0939412059474,2075.0553921120677,2075.0145445896233,2074.971403912325,2074.925975478164,2074.8782648097854,2074.828277559437,2074.776019514319,2074.7214965921607,2074.664714828143,2074.6056803671986,2074.544399469048,2074.480878516694,2074.4151240132924,2074.3471425682114,2074.276940886375,2074.2045257650657,2074.129904093292,2074.0530828522037,2073.9740691164675,2073.892870056291,2073.8094929416106,2073.723945148525,2073.636234165495,2073.5463675977776,2073.454353170187,2073.360198729372,2073.2639122444134,2073.1655018008555,2073.0649755896907,2072.96234189947,2072.857609113228,2072.7507857054875,2072.6418802363046,2072.530901343872,2072.4178577406506,2072.3027582155173,2072.185611636554,2072.0664269457425,2071.945213146939,2071.821979297928,2071.6967345106614,2071.5694879547796,2071.4402488600176,2071.309026516928,2071.17583027769,2071.040669558839,2070.903553843765,2070.7644926793573,2070.623495667685,2070.480572462971,2070.3357327817907,2070.1889864208047,2070.040343269447,2069.8898133144403,2069.7374066399866,2069.5831334243553,2069.427003931821,2069.2690284990813,2069.1092175195854,2068.9475814341235,2068.784130729827,2068.6188759420593,2068.4518276549466,2068.282996500467,2068.112393157464,2067.9400283506593,2067.7659128517544,2067.590057487985,2067.4124731560487,2067.2331708292227,2067.052161550298,2066.8694564192283,2066.685066591117,2066.499003285108,2066.3112777907113,2066.121901464757,2065.9308857224196,2065.738242026241,2065.543981875958,2065.3481168036988,2065.1506583768783,2064.951618202857,2064.7510079259873,2064.5488392178527,2064.34512376935,2064.1398732858975,2063.933099483054,2063.7248140842107,2063.5150288210225,2063.303755436475,2063.0910056939724,2062.876791389868,2062.6611243595075,2062.444016475341,2062.2254796437505,2062.0055258023667,2061.7841669155387,2061.5614149666017,2061.3372819489464,2061.1117798626174,2060.8849207214926,2060.6567165661536,2060.427179472833,2060.19632155627,2059.9641549702465,2059.7306919076414,2059.495944598165,2059.2599253000026,2059.022646287534,2058.7841198412166,2058.5443582374746,2058.3033737390638,2058.0611785973047,2057.817785065694,2057.5732054099917,2057.327451909177,2057.0805368504684,2056.8324725181014,2056.5832711787384,2056.3329450743336,2056.081506428704,2055.8289674601115,2055.5753403873555,2055.320637427933,2055.064870794436,2054.8080526899907,2054.550195303456,2054.2913108100724,2054.0314113782065,2053.770509177053,2053.50861638242,2053.2457451777013,2052.981907745961,2052.717116259129,2052.4513828786617,2052.1847197675797,2051.917139100668,2051.6486530693846,2051.379273884768,2051.109013776819,2050.8378849906026,2050.565899782502,2050.293070416242,2050.019409158669,2049.7449282794605,2049.46964005492,2049.1935567715364,2048.9166907283393,2048.639054237575,2048.36065961993,2048.081519195595,2047.801645278847,2047.5210501793722,2047.2397462057493,2046.9577456654877,2046.6750608617033,2046.391704089553,2046.1076876317081,2045.823023752707,2045.5377246961143,2045.2518026852865,2044.9652699260616,2044.6781386128157,2044.3904209355617,2044.102129079998,2043.8132752205834,2043.5238715143369,2043.233930096558,2042.9434630790356,2042.6524825577915,2042.36100062852,2042.0690293981002,2041.7765809898576,2041.4836675473055,2041.1903012367627,2040.8964942482908,2040.6022587943066,2040.3076071029082,2040.012551405267,2039.7171039193388,2039.4212768340524,2039.1250823029575,2038.8285324537403,2038.5316394027866,2038.2344152546016,2037.9368720863222,2037.6390219379214,2037.340876818759,2037.0424487209475,2036.7437496251835,2036.4447914976834,2036.1455862880036,2035.8461459335897,2035.54648236545,2035.2466075040518,2034.9465332465625,2034.646271460101,2034.345833989656,2034.0452326743402,2033.7444793615568,2033.4435859156417,2033.142564220892,2032.8414261781058,2032.5401836967146,2032.2388486861926,2031.9374330489904,2031.635948676113,2031.3344074439,2031.032821209844,2030.7312018075281,2030.4295610420438,2030.1279106865309,2029.8262624779961,2029.5246281140141,2029.2230192576014,2028.9214475491442,2028.619924614317,2028.3184620633472,2028.017071488679,2027.7157644704869,2027.4145525887634,2027.1134474301161,2026.8124605825444,2026.511603624606,2026.210888119392,2025.910325614911,2025.6099276439165,2025.3097057172374,2025.009671313907,2024.7098358773796,2024.4102108188815,2024.1108075224422,2023.8116373518508,2023.5127116605768,2023.214041801449,2022.9156391337715,2022.617515024828,2022.3196808415296,2022.0221479354896,2021.724927630263,2021.4280312140352,2021.1314699383192,2020.8352550248285,2020.5393976769956,2020.2439090880462,2019.948800443702,2019.6540829215187,2019.359767685893,2019.0658658805094,2018.7723886242275,2018.4793470115405,2018.1867521145532,2017.8946149861629,2017.6029466622788,2017.3117581567453,2017.021060450338,2016.730864484724,2016.4411811672442,2016.1520213811411,2015.8633959933036,2015.5753158576833,2015.2877918152642,2015.0008346892214,2014.7144552765565,2014.428664340771,2014.1434726075058,2013.8588907651476,2013.5749294745713,2013.2915993824868,2013.008911124048,2012.72687531416,2012.4455025416703,2012.1648033738982,2011.8847883646083,2011.6054680543714,2011.3268529633096,2011.0489535857646,2010.771780390735,2010.495343823916,2010.219654306772,2009.9447222329638,2009.6705579666202,2009.3971718451728,2009.1245741846778,2008.8527752840128,2008.5817854269878,2008.3116148819752,2008.0422738969658,2007.7737726935854,2007.5061214693633,2007.2393304077734,2006.9734096857896,2006.708369475431,2006.4442199403345,2006.1809712242357,2005.918633434317,2005.6572166327303,2005.396730843745,2005.1371860663446,2004.878592275522,2004.6209594120344,2004.3642973756025,2004.1086160291675,2003.8539252080354,2003.6002347250142,2003.347554370337,2003.095893911991,2002.845263100847,2002.5956716775547,2002.3471293735056,2002.0996459057026,2001.853230971629,2001.6078942445988,2001.3636453699035,2001.1204939676923,2000.87844964194,2000.6375219861288,2000.3977205809929,2000.1590549852112,1999.9215347180848,1999.6851692386049,1999.449967935019,1999.2159401326676,1998.9830951121564,1998.7514421266465,1998.5209904140127,1998.2917492013883,1998.0637276996108,1997.8369350914147,1997.6113805201833,1997.3870730821457,1997.164021821537,1996.9422357259978,1996.7217237211694,1996.5024946674528,1996.284557361493,1996.0679205435133,1995.8525929077714,1995.6385831092487,1995.4258997643271,1995.2145514482586,1995.00454669063,1994.7958939700231,1994.588601709958,1994.3826782750718,1994.1781319668175,1993.9749710214835,1993.7732036110979,1993.57283784505,1993.373881772194,1993.176343383348,1992.980230612512,1992.7855513365598,1992.5923133751696,1992.4005244921964,1992.2101923999255,1992.0213247689364,1991.833929241169,1991.6480134380986,1991.4635849614583,1991.2806513898702,1991.0992202726711,1990.9192991225339,1990.7408954084874,1990.564016545328,1990.3886698820684,1990.2148627031254,1990.0426022420093,1989.8718956900404,1989.7027501908806,1989.5351728305739,1989.3691706387262,1989.2047506005797,1989.0419196662813,1988.880684752457,1988.7210527391344,1988.5630304616145,1988.4066246993773,1988.251842169713,1988.098689529284,1987.9471733799342,1987.7973002752956,1987.6490767265934,1987.50250920396,1987.3576041290903,1987.2143678629297,1987.072806697525,1986.9329268541235,1986.7947344835964,1986.6582356675783,1986.5234364209696,1986.3903426965987,1986.2589603909246,1986.1292953463715,1986.0013533469294,1985.8751401099855,1985.750661280398,1985.6279224283326,1985.5069290512677,1985.3876865839268,1985.2702004133407,1985.1544758889368,1985.0405183251746,1984.928332999531,1984.8179251439894,1984.7092999327642,1984.60246247603,1984.4974178212626,1984.3941709571436,1984.2927268203453,1984.193090302076,1984.0952662434001,1983.9992594205412,1983.9050745335467,1983.8127162014425,1983.7221889613925,1983.6334972761892,1983.5466455482347,1983.461638128389,1983.3784793149596,1983.2971733492425,1983.217724414988,1983.1401366419502,1983.064414106551,1982.9905608234042,1982.9185807313875,1982.8484776841208,1982.7802554472541,1982.713917698717,1982.6494680306498,1982.5869099558995,1982.5262469241302,1982.4674823435419,1982.410619592327,1982.3556620113739,1982.3026128875092,1982.2514754407473,1982.2022528187476,1982.154948094316,1982.1095642624225,1982.066104237377,1982.02457085417,1981.9849668736567,1981.9472949872586,1981.9115578211815,1981.8777579403104,1981.8458978476149,1981.8159799792231,1981.788006699975,1981.761980299934,1981.7379029914587,1981.7157769101973,1981.6956041197668,1981.6773866164294,1981.6611263344876,1981.6468251523986,1981.6344848947178,1981.6241073293932,1981.6156941632923,1981.6092470338822,1981.6047674989009,1981.602257033482,1981.6017170354485,1981.6031488321291,1981.6065536895742,1981.6119328223306,1981.6192873924763,1981.628618498153,1981.6399271645016,1981.6532143410855,1981.6684809017956,1981.685727646116,1981.7049553014276,1981.7261645245103,1981.7493559015966,1981.7745299476242,1981.8016871049238,1981.8308277416645,1981.8619521511773,1981.8950605529596,1981.9301530932776,1981.9672298412747,1982.0062907815563,1982.0473358099734,1982.0903647361372,1982.1353772884956,1982.1823731155607,1982.2313517829652,1982.2823127734828,1982.3352554969024,1982.390179303347,1982.4470834838453,1982.5059672580014,1982.5668297663078,1982.6296700768821,1982.6944871986918,1982.7612800882061,1982.8300476477896,1982.900788723372,1982.9735021050028,1983.0481865274007,1983.1248406660134,1983.2034631295498,1983.2840524525081,1983.3666070848178,1983.4511253789935,1983.5376055839388,1983.6260458469214,1983.7164442185915,1983.8087986625646,1983.9031070678884,1983.999367254373,1984.0975769694257,1984.1977338857623,1984.2998356058508,1984.403879667712,1984.509863541264,1984.6177846160854,1984.7276401934278,1984.8394274883206,1984.9531436364819,1985.0687856999457,1985.1863506699617,1985.3058354690102,1985.4272369544985,1985.5505519235764,1985.6757771152238,1985.8029092090517,1985.9319448221754,1986.0628805020006,1986.1957127156377,1986.3304378417224,1986.4670521666376,1986.6055518848216,1986.7459331053249,1986.8881918612494,1987.032324112774,1987.1783257437662,1987.3261925609572,1987.4759202975997,1987.6275046160854,1987.780941106949,1987.936225286513,1988.093352596047,1988.252318402613,1988.413118000464,1988.5757466136479,1988.740199399966,1988.9064714546137,1989.074557812531,1989.2444534479525,1989.4161532684186,1989.589652105664,1989.7649447102685,1989.9420257513539,1990.1208898159584,1990.3015314036013,1990.4839449188398,1990.6681246694359,1990.8540648705296,1991.041759648409,1991.2312030418761,1991.4223890011237,1991.6153113807609,1991.809963928669,1992.006340280145,1992.2044339628599,1992.404238405583,1992.60574693857,1992.8089527854513,1993.0138490580064,1993.2204287600698,1993.4286847948827,1993.6386099664292,1993.8501969743622,1994.063438409006,1994.2783267477982,1994.4948543522928,1994.7130134682038,1994.9327962284149,1995.1541946545417,1995.3772006544066,1995.6018060179886,1995.8280024164953,1996.0557814047208,1996.2851344232383,1996.5160527996327,1996.7485277496473,1996.9825503778507,1997.2181116775778,1997.4552025304708,1997.6938137055356,1997.933935855712,1998.1755595082711,1998.4186750513666,1998.663272728513,1998.9093426498964,1999.1568748140185,1999.4058591262933,1999.6562854098695,1999.9081434087582,2000.1614227820614,2000.416113094433,2000.672203812549,2000.9296843083864,2001.188543861059,2001.4487716519195,2001.7103567558127,2001.9732881343307,2002.2375546326732,2002.5031449797902,2002.7700477935734,2003.0382515883693,2003.3077447772012,2003.5785156680593,2003.8505524612317,2004.1238432516816,2004.3983760331862,2004.674138698307,2004.9511190341111,2005.229304716368,2005.5086832994173,2005.7892422045124,2006.0709687191422,2006.3538500074085,2006.6378731182417,2006.9230249868804,2007.2092924341862,2007.4966621665994,2007.7851207766535,2008.0746547415638,2008.3652504162874,2008.656894023775,2008.9495716507522,2009.243269249989,2009.5379726447338,2009.8336675367514,2010.1303395149203,2010.4279740522898,2010.726556492236,2011.026072039665,2011.3265057654382,2011.6278426170488,2011.9300674256085,2012.2331649073042,2012.5371196621293,2012.8419161699692,2013.1475387845212,2013.453971727775,2013.761199086335,2014.0692048114279,2014.3779727261226,2014.6874865331085,2014.9977298069277,2015.3086859725015,2015.6203382924703,2015.9326698754508,2016.2456636959112,2016.5593026123636,2016.873569379224,2017.1884466524202,2017.5039169901918,2017.8199628523644,2018.1365666002669,2018.4537104972073,2018.7713767049424,2019.0895472683637,2019.4082040953758,2019.7273289529635,2020.046903480326,2020.3669091997667,2020.6873275182083,2021.0081397262209,2021.3293270001752,2021.6508704068806,2021.9727509055772,2022.294949343917,2022.6174464521027,2022.9402228431143,2023.2632590188682,2023.586535375653,2023.9100322078823,2024.233729711848,2024.5576079875493,2024.8816470380375,2025.2058267674772,2025.5301269770448,2025.8545273628308,2026.1790075263218,2026.5035469947406,2026.8281252328127,2027.1527216369798,2027.4773155234434,2027.8018861264673,2028.1264126072565,2028.4508740617164,2028.775249523882,2029.099517968068,2029.4236583090928,2029.7476494004204,2030.0714700351878,2030.3950989563675,2030.7185148711785,2031.0416964554795,2031.3646223469434,2031.6872711404744,2032.0096213939667,2032.3316516380667,2032.653340378005,2032.9746660869318,2033.2956072035813,2033.616142144602,2033.9362493247409,2034.2559071682927,2034.575094108851,2034.8937885864934,2035.2119690461698,2035.5296139389768,2035.8467017316877,2036.1632109220527,2036.4791200504924,2036.7944077084276,2037.1090525464497,2037.4230332777631,2037.7363286759378,2038.0489175725038,2038.36077885695,2038.671891477125,2038.982234437234,2039.2917867938343,2039.6005276532726,2039.9084361722512,2040.2154915608767,2040.521673088036,2040.8269600876545,2041.1313319631909,2041.4347681911736,2041.7372483283436,2042.0387520269721,2042.3392590545081,2042.6387493063346,2042.9372028090695,2043.2345997217049,2043.5309203401123,2043.8261451024316,2044.120254587729,2044.4132295081665,2044.705050702453,2044.9956991324239,2045.2851558831471,2045.573402172489,2045.8604193676517,2046.1461889954626,2046.4306927413645,2046.7139124437606,2046.9958300901235,2047.2764278157504,2047.5556879046837,2047.8335927944809,2048.1101250832285,2048.385267533032,2048.6590030690227,2048.9313147773983,2049.2021859034726,2049.4715998478787,2049.7395401588483,2050.005990522411,2050.270934756601,2050.5343568121566,2050.7962407773102,2051.0565708851436,2051.315331521587,2051.5725072286104,2051.8280826987643,2052.0820427665144,2052.334372406632,2052.5850567399593,2052.834081041099,2053.0814307509168,2053.327091490725,2053.571049062287,2053.8132894335595,2054.0537987292428,2054.292563235998,2054.5295694146425,2054.7648039081787,2054.998253543572,2055.2299053306488,2055.4597464585913,2055.6877642905115,2055.91394635867,2056.1382803614565,2056.3607541608576,2056.5813557780016,2056.8000733889457,2057.016895327921,2057.231810097146,2057.4448063734458,2057.6558730078928,2057.8649990214467,2058.0721735979528,2058.277386076181,2058.480625944431,2058.681882837783,2058.8811465388026,2059.078406987536,2059.273654298247,2059.4668787688615,2059.658070876227,2059.847221265128,2060.0343207419496,2060.2193602745147,2060.4023309932077,2060.5832241913763,2060.76203132558,2060.938744015677,2061.1133540446763,2061.285853359231,2061.4562340723014,2061.6244884661373,2061.7906089904577,2061.9545882562256,2062.1164190305453,2062.2760942337277,2062.4336069380397,2062.5889503713483,2062.742117924691,2062.893103156484,2063.0418997895226,2063.1885017061372,2063.3329029502484,2063.475097735752,2063.615080452748,2063.7528456689574,2063.888388127542,2064.021702738913,2064.1527845685355,2064.2816288288245,2064.408230877294,2064.532586217995,2064.6546905061596,2064.7745395548554,2064.892129338594,2065.0074559914156,2065.12051580233,2065.2313052119625,2065.3398208112085,2065.4460593389254,2065.5500176743435,2065.651692828111,2065.7510819437666,2065.848182309226,2065.9429913655526,2066.035506708756,2066.1257260891903,2066.2136474111117,2066.299268732486,2066.382588265194,2066.4636043762075,2066.5423155876388,2066.618720570868,2066.692818136185,2066.764607224838,2066.8340869039694,2066.901256362435,2066.966114910398,2067.028661982765,2067.0888971423906,2067.1468200823224,2067.2024306286867,2067.255728744461,2067.306714533172,2067.3553882395454,2067.401750243912,2067.4458010538106,2067.487541301045,2067.5269717449114,2067.5640932770348,2067.5989069288494,2067.6314138810094,2067.661615467511,2067.6895131734877,2067.7151086310837,2067.738403612686,2067.7594000205536,2067.778099875891,2067.794505310081,2067.8086185622633,2067.8204419877225,2067.8299780696516,2067.8372294181777,2067.842198756884,2067.844888913426,,,,,,,,,,,,,,,,,,,,,,,,,,,,,,,,,,,,,,,,,,,,,,,,,,,,,,,,,,,,,,,,,,,,,,,,,,,,,,,,,,,,,,,,,,,,,,,,,,,,,,,,,,,,,,,,,,,,,,,,,,,,,,,,,,,,,,,,,,,,,,,,,,,,,,,,,,,,,,,,,,,,,,,,,,,,,,,,,,,,,,,,,,,,,,,,,,,,,,,,,,,,,,,,,,,,,,,,,,,,,,,,,,,,,,,,,,,,,,,,,,,,,,,,,,,,,,,,,,,,,,,,,,,,,,,,,,,,,,,,,,,,,,,,,,,,,,,,,,,,,,,,,,,,,,,,,,,,,,,,,,,,,,,,,,,,,,,,,,,,,,,,,,,,,,,,,,,,,,,,,,,,,,,,,,,,,,,,,,,,,,,,,,,,,,,,,,,,,,,,,,,,,,,,,,,,,,,,,,,,,,,,,,,,,,,,,,,,,,,,,,,,,,,,,,,,,,,,,,,,,,,,,,,,,,,,,,,,,,,,,,,,,,,,,,,,,,,,,,,,,,,,,,,,,,,,,,,,,,,,,,,,,,,,,,,,,,,,,,,,,,,,,,,,,,,,,,,,,,,,,,,,,,,,,,,,,,,,,,,,,,,,,,,,,,,,,,,,,,,,,,,,,,,,,,,,,,,,,,,,,,,,,,,,,,,,,,,,,,,,,,,,,,,,,,,,,,,,,,,,,,,,,,,,,,,,,,,,,,,,,,,,,,,,,,,,,,,,,,,,,,,,,,,,,,,,,,,,,,,,,,,,,,,,,,,,,,,,,,,,,,,,,,,,,,,,,,,,,,,,,,,,,,,,,,,,,,,,,,,,,,,,,,,,,,,,,,,,,,,,,,,,,,,,,,,,,,,,,,,,,,,,,,,,,,,,,,,,,,,,,,,,,,,,,,,,,,,,,,,,,,,,,,,,,,,,,,,,,,,,,,,,,,,,,,,,,,,,,,,,,,,,,,,,,,,,,,,,,,,,,,,,,,,,,,,,,,,,,,,,,,,,,,,,,,,,,,,,,,,,,,,,,,,,,,,,,,,,,,,,,,,,,,,,,,,,,,,,,,,,,,,,,,,,,,,,,,,,,,,,,,,,,,,,,,,,,,,,,,,,,,,,,,,,,,,,,,,,,,,,,,,,,,,,,,,,,,,,,,,,,,,,,,,,,,,,,,,,,,,,,,,,,,,,,,,,,,,,,,,,,,,,,,,,,,,,,,,,,,,,,,,,,,,,,,,,,,,,,,,,,,,,,,,,,,,,,,,,,,,,,,,,,,,,,,
2055.5920020336002,2055.5917158986153,2055.588056215785,2055.581030098566,2055.5706449905097,2055.5569086507044,2055.5398291396405,2055.519414835529,2055.4956744770125,2055.4686171856106,2055.438252439505,2055.4045900262436,2055.3676400234654,2055.327412812507,2055.2839191009575,2055.237169957404,2055.1871768555316,2055.1339516955227,2055.0775067974855,2055.0178548924687,2054.955009122016,2054.888983034088,2054.819790557509,2054.7474459614136,2054.6719638321692,2054.593359083173,2054.511646973195,2054.4268430971533,2054.3389633517486,2054.248023913298,2054.1540412447953,2054.0570321102973,2053.9570135657946,2053.854002929008,2053.7480177536663,2053.63907580989,2053.527195069867,2053.4123937215422,2053.2946902070753,2053.1741032552322,2053.050651905275,2052.924355522755,2052.7952337792162,2052.663306601086,2052.528594137243,2052.391116766772,2052.2508951233685,2052.1079501092145,2051.962302895077,2051.8139749131215,2051.6629878375725,2051.5093635524067,2051.3531241166306,2051.1942917360675,2051.032888748141,2050.868937618851,2050.7024609454415,2050.5334814639605,2050.3620220600733,2050.1881057746245,2050.011755798259,2049.832995453076,2049.6518481564503,2049.4683373763446,2049.2824866150404,2049.0943194500896,2048.903859604492,2048.711130988487,2048.5161577028207,2048.318964026199,2048.119574385722,2047.918013310695,2047.7143053901045,2047.5084752447174,2047.3005475089274,2047.0905468089652,2046.878497743152,2046.6644248962446,2046.44835288463,2046.2303063873305,2046.0103101441614,2045.7883889364555,2045.5645675625242,2045.3388708143507,2045.1113234705217,2044.8819503183852,2044.6507761835205,2044.4178259214907,2044.1831243743084,2043.9466963329999,2043.7085665111342,2043.4687595232324,2043.2272998911817,2042.9842120774376,2042.7395205125567,2042.4932496093522,2042.2454237794936,2041.996067462693,2041.7452051615826,2041.492861454288,2041.2390609607585,2040.9838282851722,2040.7271879835027,2040.4691645647708,2040.20978249555,2039.9490661886584,2039.6870399809052,2039.4237281120638,2039.1591547107491,2038.8933437880125,2038.6263192370316,2038.3581048360516,2038.0887242549875,2037.8182010644684,2037.5465587432657,2037.2738206845115,2037.0000101990854,2036.7251505076479,2036.4492647237541,2036.1723758499586,2035.894506805572,2035.6156804653772,2035.3359196630568,2035.0552471589233,2034.7736856145514,2034.4912575893263,2034.207985540648,2033.9238918111594,2033.6389986066479,2033.353327986529,2033.0669018811134,2032.7797421279467,2032.4918705142395,2032.2033088152461,2031.9140788074933,2031.6242022369788,2031.3337007662776,2031.042595952081,2030.750909259253,2030.458662071646,2030.1658756749262,2029.872571233316,2029.5787698044771,2029.284492388477,2028.9897599621536,2028.6945934850828,2028.399013890537,2028.1030420557552,2027.8066987592338,2027.5100046583043,2027.2129802930865,2026.9156461013963,2026.6180224482623,2026.3201296655884,2026.021988075181,2025.7236179898723,2025.4250397089638,2025.1262735124549,2024.8273396459408,2024.5282582868495,2024.2290495009415,2023.929733220721,2023.630329262794,2023.3308573541556,2023.0313371179031,2022.7317880224384,2022.4322293521718,2022.132680230564,2021.8331596675098,2021.533686588872,2021.2342798412647,2020.9349581911583,2020.635740327633,2020.336644870814,2020.0376903916665,2019.7388954386824,2019.440278554835,2019.1418582787057,2018.8436531358752,2018.5456816230078,2018.2479621890966,2017.9505132236034,2017.6533530518993,2017.3564999327336,2017.0599720585392,2016.7637875589821,2016.4679645045103,2016.1725209086808,2015.8774747300802,2015.5828438742428,2015.288646195566,2014.9948995028726,2014.701621575929,2014.408830181955,2014.1165430629233,2013.824777897294,2013.533552278381,2013.2428837316625,2012.9527897466944,2012.6632877854881,2012.374395265732,2012.0861295582056,2011.7985080316628,2011.5115481094729,2011.2252672552595,2010.939682891592,2010.654812339364,2010.3706728070704,2010.087281404422,2009.8046551750233,2009.5228111404076,2009.2417663335166,2008.961537823655,2008.6821427353555,2008.403598237215,2008.1259215039477,2007.849129692228,2007.5732399481735,2007.298269423341,2007.0242352684022,2006.7511546065307,2006.4790445124597,2006.2079220024887,2005.937804034627,2005.6687075363209,2005.400649453267,2005.1336467750984,2004.867716511158,2004.602875643952,2004.3391411081566,2004.076529800856,2003.8150585905582,2003.554744305511,2003.295603713085,2003.0376535133485,2002.7809103488648,2002.5253908148854,2002.2711114646702,2002.018088818446,2001.7663393861565,2001.5158796987207,2001.2667263258954,2001.0188958697872,2000.7724049437506,2000.5272701480296,2000.2835080486386,2000.041135167188,1999.8001679840886,1999.5606229413431,1999.3225164246353,1999.0858647295881,1998.850684044241,1998.6169904655974,1998.3848000323903,1998.154128746075,1997.9249925751753,1997.6974074596212,1997.4713893296812,1997.246954128132,1997.0241178052333,1996.802896288134,1996.583305457164,1996.3653611379393,1996.1490791007584,1995.9344750701312,1995.721564742412,1995.5103637928717,1995.3008878572007,1995.0931524967712,1994.887173169162,1994.6829652116564,1994.4805438421736,1994.2799241893995,1994.0811213350776,1993.8841503250485,1993.689026146603,1993.4957637046077,1993.3043778012666,1993.1148831118173,1992.9272941646764,1992.7416253313086,1992.5578908225764,1992.376104688728,1992.1962808222129,1992.0184329653528,1991.8425747212468,1991.6687195614168,1991.4968808285719,1991.3270717381426,1991.159305381019,1990.9935947270878,1990.8299526328121,1990.6683918621877,1990.508925112553,1990.3515650172612,1990.1963241248066,1990.0432148815887,1989.892249626835,1989.7434405948118,1989.596799928786,1989.452339703495,1989.310071947195,1989.1700086722167,1989.0321619107783,1988.8965437256336,1988.7631661931136,1988.6320413804779,1988.5031813135095,1988.3765979290877,1988.2523030289608,1988.1303082464888,1988.010625032438,1987.8932646626706,1987.7782382559622,1987.6655567861214,1987.5552310855787,1987.4472718522018,1987.3416896743558,1987.2384950595979,1987.1376984256253,1987.039310055911,1986.9433400691184,1986.8497984225799,1986.7586949299596,1986.6700392732203,1986.583841006055,1986.5001095532461,1986.4188542063548,1986.3400841202085,1986.2638083215422,1986.1900357277668,1986.1187751567961,1986.0500353161651,1985.983824782801,1985.920151993734,1985.859025250176,1985.8004527215867,1985.7444424424189,1985.6910023104697,1985.6401401034736,1985.5918635098765,1985.5461801486408,1985.5030975683417,1985.4626232344804,1985.42476451029,1985.3895286359011,1985.3569227135758,1985.3269536965768,1985.299628377208,1985.274953378893,1985.252935151081,1985.2335799564212,1985.2168938514337,1985.2028826744624,1985.1915520457842,1985.1829073733788,1985.1769538594958,1985.1736965063878,1985.1731401273057,1985.1752893781643,1985.1801487989285,1985.1877228249607,1985.1980157654843,1985.2110317869024,1985.2267749192206,1985.245249073815,1985.2664580579356,1985.2904055822944,1985.3170952593052,1985.3465305842656,1985.3787149035372,1985.413651385144,1985.4513429990889,1985.4917925073894,1985.5350024614,1985.580975195462,1985.6297128022825,1985.6812170961193,1985.7354895994838,1985.7925315821597,1985.8523441273876,1985.9149281704445,1985.980284499876,1986.0484137554693,1986.119316445679,1986.1929929763974,1986.2694436699671,1986.3486687695727,1986.4306684375263,1986.515442749885,1986.602991686182,1986.6933151142694,1986.7864127739279,1986.8822842657326,1986.9809290447672,1987.0823464122946,1987.1865355005093,1987.2934952540293,1987.4032244223213,1987.515721574019,1987.6309851185238,1987.7490133052752,1987.8698042006881,1987.9933556719704,1988.1196653916122,1988.2487308471325,1988.380549333768,1988.5151179317263,1988.6524334866688,1988.7924925950413,1988.9352915865497,1989.0808265053988,1989.2290930947595,1989.3800867913612,1989.5338027371074,1989.6902357939177,1989.8493805329927,1990.011231200936,1990.175781704115,1990.3430256404743,1990.5129563548603,1990.6855669687707,1990.8608503768164,1991.0387992350531,1991.2194059480776,1991.4026626609757,1991.5885612792472,1991.7770935114322,1991.9682508942765,1992.1620247813653,1992.3584063134813,1992.5573863930058,1992.7589556684422,1992.9631045168971,1993.1698230022,1993.3791008244868,1993.5909273172351,1993.8052914921577,1994.0221820678496,1994.2415874485166,1994.4634956888935,1994.6878945041792,1994.9147713221516,1995.1441133206583,1995.3759074297964,1995.6101403267714,1995.8467984522445,1996.0858680437027,1996.3273351465007,1996.5711855713314,1996.8174048249043,1997.0659780726608,1997.3168901424488,1997.5701255277786,1997.8256683630689,1998.083502388328,1998.343610942627,1998.60597698758,1998.870583132433,1999.1374116603545,1999.406444559987,1999.6776635431886,1999.951050044099,2000.2265852121038,2000.504249901135,2000.7840246557103,2001.0658897010167,2001.3498249390664,2001.6358099448375,2001.9238239563176,2002.2138458592588,2002.5058541723247,2002.7998270358773,2003.095742204807,2003.3935770437834,2003.6933085212788,2003.99491319952,2004.298367222399,2004.60364630662,2004.910725736482,2005.2195803643326,2005.5301846264265,2005.8425125697247,2006.1565378661085,2006.4722338022366,2006.789573256005,2007.1085286734,2007.4290720510214,2007.7511749327953,2008.0748084334523,2008.3999432822834,2008.7265498664788,2009.0545982626916,2009.3840582474945,2009.7148992786165,2010.0470904587244,2010.380600502441,2010.7153977143091,2011.051449977701,2011.3887247534558,2011.7271890878421,2012.0668096347113,2012.4075526857566,2012.7493841804817,2013.0922696735586,2013.4361742806784,2013.781062647115,2014.1268989463022,2014.4736468901742,2014.8212697528854,2015.1697304095367,2015.5189913761128,2015.8690148400842,2016.2197626816705,2016.571196498752,2016.9232776366434,2017.2759672004186,2017.6292260461344,2017.9830147700209,2018.337293702536,2018.6920229072882,2019.047162191718,2019.402671126299,2019.7585090544044,2020.114635083912,2020.4710080751593,2020.827586648368,2021.1843292081073,2021.5411939527467,2021.8981388461732,2022.25512158099,2022.6120995924273,2022.9690301189123,2023.3258702545218,2023.682576989265,2024.0391072497748,2024.3954179148413,2024.751465801334,2025.1072076505272,2025.4626001290358,2025.8175998402999,2026.1721633449986,2026.5262471847104,2026.879807893001,2027.2328019858217,2027.5851859515058,2027.936916274443,2028.2879494859408,2028.6382421976434,2028.9877511020943,2029.3364329615363,2029.6842446023961,2030.031142921137,2030.3770849047203,2030.7220276583762,2031.0659284139074,2031.4087444966158,2031.7504332869607,2032.0909522524153,2032.4302590409952,2032.7683115439638,2033.1050678916001,2033.4404864254454,2033.7745256912485,2034.1071444538275,2034.4383017164057,2034.7679567496923,2035.0960691246232,2035.422598711845,2035.7475056475334,2036.0707503130172,2036.392293357011,2036.712095735307,2037.0301187216694,2037.3463238866902,2037.6606730839605,2037.973128467896,2038.2836525310522,2038.592208137798,2038.8987585454265,2039.2032674102659,2039.505698775547,2039.8060170552271,2040.1041870401405,2040.4001739244493,2040.6939433223715,2040.9854612617953,2041.2746941697965,2041.5616088691231,2041.8461725860543,2042.1283529570592,2042.4081180306002,2042.685436269359,2042.9602765565342,2043.232608204185,2043.5024009611839,2043.7696250260547,2044.0342510622602,2044.2962501997156,2044.5555940217087,2044.8122545563033,2045.0662042835806,2045.3174161526372,2045.5658635977863,2045.8115205495062,2046.0543614397238,2046.2943612034653,2046.5314952760634,2046.7657395786161,2046.997070494945,2047.225464858715,2047.4508999612635,2047.6733535764902,2047.8928039999637,2048.1092300921073,2048.322611300711,2048.5329276518178,2048.740159720345,2048.9442885897715,2049.1452958106242,2049.3431633796813,2049.537873752055,2049.7294098703355,2049.9177551876705,2050.102893678693,2050.284809848847,2050.463488757124,2050.6389160359777,2050.811077860953,2050.979960877331,2051.145552147892,2051.307839142081,2051.466809751568,2051.622452339502,2051.7747558108863,2051.923709647674,2052.069303875731,2052.211529002198,2052.350375986959,2052.4858362551067,2052.617901709834,2052.7465647258746,2052.87181814175,2052.9936552800305,2053.1120699903395,2053.2270566733114,2053.3386102631885,2053.446726185285,2053.5514003098247,2053.6526289135063,2053.7504086703066,2053.8447366958544,2053.9356106092773,2054.023028530966,2054.1069890166646,2054.1874910098413,2054.2645338476336,2054.338117292784,2054.4082415655953,2054.474907367797,2054.5381158971018,2054.597868858131,2054.6541684697145,2054.7070174547653,2054.756419015165,2054.8023768038333,2054.844894880994,2054.8839776582963,2054.919629870949,2054.95185658477,2054.9806632101554,2055.006055516068,2055.0280396472986,2055.046622137282,2055.0618099132307,2055.0736103004742,2055.0820310341296,2055.0870802732215,,,,,,,,,,,,,,,,,,,,,,,,,,,,,,,,,,,,,,,,,,,,,,,,,,,,,,,,,,,,,,,,,,,,,,,,,,,,,,,,,,,,,,,,,,,,,,,,,,,,,,,,,,,,,,,,,,,,,,,,,,,,,,,,,,,,,,,,,,,,,,,,,,,,,,,,,,,,,,,,,,,,,,,,,,,,,,,,,,,,,,,,,,,,,,,,,,,,,,,,,,,,,,,,,,,,,,,,,,,,,,,,,,,,,,,,,,,,,,,,,,,,,,,,,,,,,,,,,,,,,,,,,,,,,,,,,,,,,,,,,,,,,,,,,,,,,,,,,,,,,,,,,,,,,,,,,,,,,,,,,,,,,,,,,,,,,,,,,,,,,,,,,,,,,,,,,,,,,,,,,,,,,,,,,,,,,,,,,,,,,,,,,,,,,,,,,,,,,,,,,,,,,,,,,,,,,,,,,,,,,,,,,,,,,,,,,,,,,,,,,,,,,,,,,,,,,,,,,,,,,,,,,,,,,,,,,,,,,,,,,,,,,,,,,,,,,,,,,,,,,,,,,,,,,,,,,,,,,,,,,,,,,,,,,,,,,,,,,,,,,,,,,,,,,,,,,,,,,,,,,,,,,,,,,,,,,,,,,,,,,,,,,,,,,,,,,,,,,,,,,,,,,,,,,,,,,,,,,,,,,,,,,,,,,,,,,,,,,,,,,,,,,,,,,,,,,,,,,,,,,,,,,,,,,,,,,,,,,,,,,,,,,,,,,,,,,,,,,,,,,,,,,,,,,,,,,,,,,,,,,,,,,,,,,,,,,,,,,,,,,,,,,,,,,,,,,,,,,,,,,,,,,,,,,,,,,,,,,,,,,,,,,,,,,,,,,,,,,,,,,,,,,,,,,,,,,,,,,,,,,,,,,,,,,,,,,,,,,,,,,,,,,,,,,,,,,,,,,,,,,,,,,,,,,,,,,,,,,,,,,,,,,,,,,,,,,,,,,,,,,,,,,,,,,,,,,,,,,,,,,,,,,,,,,,,,,,,,,,,,,,,,,,,,,,,,,,,,,,,,,,,,,,,,,,,,,,,,,,,,,,,,,,,,,,,,,,,,,,,,,,,,,,,,,,,,,,,,,,,,,,,,,,,,,,,,,,,,,,,,,,,,,,,,,,,,,,,,,,,,,,,,,,,,,,,,,,,,,,,,,,,,,,,,,,,,,,,,,,,,,,,,,,,,,,,,,,,,,,,,,,,,,,,,,,,,,,,,,,,,,,,,,,,,,,,,,,,,,,,,,,,,,,,,,,,,,,,,,,,,,,,,,,,,,,,,,,,,,,,,,,,,,,,,,,,,,,,,,,,,,,,,,,,,,,,,,,,,,,,,,,,,,,,,,,,,,,,,,,,,,,,,,,,,,,,,,,,,,,,,,,,,,,,,,,,,,,,,,,,,,,,,,,,,,,,,,,,,,,,,,,,,,,,,,,,,,,,,,,,,,,,,,,,,,,,,,,,,,,,,,,,,,,,,,,,,,,,,,,,,,,,,,,,,,,,,,,,,,,,,,,,,,,,,,,,,,,,,,,,,,,
2043.651408343507,2043.6488382972555,2043.6436055973531,2043.6357154466232,2043.6251733090553,2043.6119848891667,2043.5961560906867,2043.5776929890546,2043.5566018246247,2043.532889001975,2043.5065610867987,2043.4776248036233,2043.4460870424728,2043.4119548728509,2043.3752355642298,2043.3359366309012,2043.294065882117,2043.2496314109844,2043.2026415249552,2043.1531047018907,2043.1010296143054,2043.0464251775613,2042.9893005550748,2042.9296651193174,2042.8675284327117,2042.8029002918356,2042.7357907947687,2042.6662103496258,2042.5941696222494,2042.5196794891935,2042.4427510126309,2042.363395420551,2042.2816240991453,2042.1974485994083,2042.1108806421305,2042.0219321119537,2041.9306150575271,2041.836941731033,2041.7409246573457,2041.6425766841353,2041.5419110039954,2041.4389411599484,2041.3336810168892,2041.2261447062633,2041.1163465805,2041.004301174762,2040.8900231670862,2040.7735273628825,2040.6548287078472,2040.5339423037308,2040.4108834204683,2040.285667497775,2040.1583101086198,2040.0288268939075,2039.897233517458,2039.7635456538665,2039.6277789954408,2039.4899492855282,2039.3500723701093,2039.208164241294,2039.0642410808284,2038.9183193076733,2038.7704155951662,2038.6205468537128,2038.4687302009115,2038.314982906133,2038.1593223229395,2038.0017658754773,2037.8423311024933,2037.6810356883798,2037.5178974443295,2037.352934274897,2037.1861641871722,2037.0176053405364,2036.8472760806078,2036.6751949318157,2036.5013805713227,2036.3258518106686,2036.1486275900004,2035.969726960549,2035.7891690172148,2035.6069728120945,2035.4231573459158,2035.2377416398147,2035.050744800225,2034.8621860557848,2034.6720847857334,2034.4804605243803,2034.2873329408371,2034.092721805775,2033.8966469216793,2033.6991280405355,2033.5001848634788,2033.2998371228139,2033.0981046409165,2032.8950073185522,2032.690565090745,2032.4847978923938,2032.277725642559,2032.06936823525,2031.8597455229171,2031.6488772922453,2031.4367832444163,2031.2234829851193,2031.0089960226799,2030.7933417747206,2030.576539568741,2030.3586086078144,2030.1395679103273,2029.9194362890803,2029.6982324216801,2029.4759749574541,2029.252682543229,2029.0283737618881,2028.8030670725586,2028.5767807739298,2028.3495329769107,2028.121341612589,2027.8922244738737,2027.6621992409116,2027.4312834626953,2027.199494531374,2026.9668497129626,2026.73336622715,2026.4990613060152,2026.2639522113634,2026.0280562257012,2025.7913906034523,2025.5539724949986,2025.315818897907,2025.0769466519805,2024.837372455408,2024.597112892283,2024.3561844649896,2024.1146036148346,2023.8723867268532,2023.629550135031,2023.3861101465955,2023.1420830797003,2022.8974852844815,2022.6523331312505,2022.4066429881464,2022.1604312243496,2021.9137142384543,2021.6665084767,2021.418830421997,2021.1706965748385,2020.9221234614006,2020.6731276501637,2020.4237257097097,2020.1739341141836,2019.9237691913588,2019.6732471656412,2019.4223842286642,2019.1711965246868,2018.9197000548502,2018.66791061714,2018.4158438412876,2018.1635152589697,2017.9109403200505,2017.658134351214,2017.4051125373178,2017.1518899818625,2016.8984818031652,2016.6449031733284,2016.3911692906747,2016.137295354615,2015.8832965758152,2015.629188208274,2015.3749855915412,2015.1207041929397,2014.8663596226038,2014.6119675973985,2014.3575438748164,2014.1031042026973,2013.8486642977548,2013.5942398301875,2013.3398463875994,2013.0854994263432,2012.8312142504512,2012.5770060238358,2012.32288979547,2012.068880546479,2011.814993240474,2011.5612428089735,2011.307644075965,2011.0542117169534,2010.8009603092912,2010.5479044161848,2010.29505860132,2010.0424373708665,2009.7900551284597,2009.537926178871,2009.2860647596685,2009.034485089916,2008.7832014241446,2008.532228074273,2008.281579370665,2008.0312695878922,2007.7813128863145,2007.5317232844936,2007.282514653107,2007.0337007283347,2006.78529513011,2006.5373113572437,2006.2897627610425,2006.0426625367754,2005.7960237638233,2005.549859470575,2005.3041826701076,2005.0590063581328,2004.814343491872,2004.5702069372824,2004.326609395993,2004.083563367943,2003.8410811594515,2003.5991748969689,2003.3578565286502,2003.1171378405313,2002.877030532745,2002.6375463371203,2002.3986970893325,2002.1604947207222,2001.9229512034503,2001.686078472526,2001.4498883445826,2001.2143924735692,2000.9796023575589,2000.7455293800363,2000.5121848812048,2000.279580241866,2000.0477269295623,1999.816636483859,1999.5863204659174,1999.356790398327,1999.1280577106108,1998.900133710289,1998.6730295843622,1998.4467564222934,1998.2213252629238,1997.9967471539562,1997.7730331761406,1997.550194395639,1997.32824177825,1997.1071861340558,1996.8870381066909,1996.6678081865427,1996.4495067531582,1996.2321441318436,1996.0157306129327,1995.8002764292605,1995.5857917336318,1995.3722865896707,1995.1597709594182,1994.9482546738852,1994.737747394265,1994.5282586039752,1994.3197976700706,1994.1123739431905,1993.9059968205804,1993.7006757567697,1993.496420255581,1993.2932398523924,1993.0911440769228,1992.890142389635,1992.6902441079917,1992.4914583655654,1992.2937941210448,1992.0972601887368,1991.9018652593234,1991.7076179060061,1991.5145265942947,1991.3225997173474,1991.1318456459103,1990.9422727539052,1990.753889413584,1990.5667039756597,1990.3807247226575,1990.1959598031851,1990.0124171925704,1989.8301046900026,1989.6490299371692,1989.4692004709661,1989.2906238066264,1989.113307515161,1988.937259276045,1988.7624868958133,1988.588998281614,1988.4168013806773,1988.245904105164,1988.0763142614753,1987.908039516469,1987.7410874172238,1987.5754654440627,1987.411181073305,1987.2482418343297,1987.086655326465,1986.9264291616234,1986.767570868385,1986.6100878378604,1986.4539873251283,1986.2992764786563,1986.145962412316,1985.9940522883392,1985.8435533053314,1985.694472594584,1985.546817144371,1985.400593798483,1985.2558092876131,1985.1124702627653,1984.9705833225626,1984.8301550373055,1984.6911919876236,1984.5537008079866,1984.4176881876072,1984.2831608287324,1984.1501254219684,1984.0185886727118,1983.8885573381228,1983.7600382020132,1983.6330379941421,1983.5075633374956,1983.3836207600664,1983.2612167333984,1983.1403576944892,1983.0210500457736,1982.903300143735,1982.7871142692527,1982.6724985918522,1982.5594591704591,1982.448001990657,1982.3381330035586,1982.229858169534,1982.12318351248,1982.018115156223,1981.9146593341395,1981.8128223817223,1981.7126107047961,1981.6140307274347,1981.5170888439272,1981.4217913869597,1981.3281446189137,1981.2361547560165,1981.1458280001882,1981.0571705266557,1980.9701884305807,1980.8848876931484,1980.801274196332,1980.7193537526591,1980.6391321008841,1980.5606148817722,1980.48380766134,1980.4087160019599,1980.3353455042406,1980.2637017783036,1980.1937903825904,1980.1256167886263,1980.059186380661,1979.9945044581414,1979.9315762199124,1979.8704067407011,1979.8110009650336,1979.7533637202089,1979.6974997288557,1979.643413615393,1979.5911099177517,1979.5405931169385,1979.4918676771335,1979.444938064682,1979.3998087256905,1979.3564840526574,1979.3149683961256,1979.2752661185186,1979.2373816224033,1979.2013193105815,1979.1670835193954,1979.1346785027308,1979.1041084707836,1979.0753776271895,1979.0484901891018,1979.0234504052307,1979.000262570622,1978.9789310345295,1978.9594602001584,1978.9418545110107,1978.9261184213933,1978.9122563510937,1978.900272635579,1978.8901714916003,1978.8819569949555,1978.8756330683846,1978.8712035059648,1978.8686720279234,1978.8680423127175,1978.8693179792,1978.872502549297,1978.8775994366397,1978.8846119639898,1978.893543371726,1978.9043967910218,1978.9171752093014,1978.9318814863984,1978.9485184173575,1978.9670887741283,1978.9875952961254,1979.0100406580566,1979.0344274470706,1979.0607581549014,1979.0890351890703,1979.1192609242416,1979.1514377710091,1979.1855681919287,1979.2216546607383,1979.259699632925,1979.2997055625306,1979.3416749262474,1979.385610190702,1979.4315137310398,1979.479387777085,1979.5292344179127,1979.5810556254737,1979.6348532526486,1979.6906290061345,1979.7483844371702,1979.8081209845857,1979.8698400336605,1979.9335429092446,1979.9992308047645,1980.066904730689,1980.1365655165373,1980.208213829914,1980.2818501728123,1980.3574748559922,1980.435087991608,1980.514689538155,1980.5962793746185,1980.679857347019,1980.7654232755917,1980.8529769436952,1980.9425180672324,1981.0340462571635,1981.1275610173016,1981.2230617777977,1981.320547930238,1981.4200188663763,1981.5214740042793,1981.6249127325036,1981.7303342861005,1981.8377376729159,1981.9471217094203,1982.0584851092694,1982.1718265475065,1982.2871446841834,1982.40443815551,1982.523705516306,1982.6449451528229,1982.768155228415,1982.8933336754505,1983.020478198568,1983.1495862718361,1983.2806551432018,1983.4136818709776,1983.5486633830374,1983.6855965104376,1983.8244779723416,1983.9653043471365,1984.1080720812674,1984.2527775333604,1984.399417006561,1984.547986752871,1984.6984829588084,1984.8509017071153,1985.005238923852,1985.1614903518462,1985.319651575252,1985.4797180566716,1985.6416851182785,1985.8055478714002,1985.9713011647543,1986.1389395752688,1986.3084574147158,1986.479848735115,1986.6531073312833,1986.8282267527065,1987.0052003482597,1987.1840213182186,1987.3646826985055,1987.54717728082,1987.7314975587235,1987.9176357406548,1988.1055837925503,1988.2953334658478,1988.4868763035681,1988.680203635839,1988.8753065656676,1989.0721759636297,1989.2708025152876,1989.4711768091706,1989.6732893821404,1989.8771306734643,1990.0826909407363,1990.2899602277205,1990.4989283918221,1990.709585138445,1990.9219200529024,1991.13592262096,1991.351582185262,1991.568887848195,1991.787828418149,1992.0083924543605,1992.230568349472,1992.4543443475757,1992.6797084928685,1992.906648599393,1993.1351522986668,1993.3652071100196,1993.596800426128,1993.8299194169913,1994.0645509578326,1994.3006816190668,1994.5382976923659,1994.7773852507942,1995.0179302275972,1995.2599184519759,1995.5033356020845,1995.7481671243465,1995.9943982075313,1996.2420138176788,1996.4909987192214,1996.7413374364573,1996.993014197973,1997.24601294638,1997.5003174105195,1997.7559111508838,1998.0127775332162,1998.270899668836,1998.5302603756447,1998.790842169148,1999.052627264423,1999.315597582948,1999.5797347671305,1999.8450202029437,2000.111435044583,2000.3789602180177,2000.6475763795027,2000.9172638546079,2001.1880026186225,2001.4597723227987,2001.7325523100405,2002.0063215855507,2002.2810587748945,2002.55674213196,2002.8333495943803,2003.1108588190696,2003.3892471654149,2003.668491659803,2003.9485689889432,2004.2294555321346,2004.5111274162489,2004.7935605727348,2005.0767307572921,2005.3606135001655,2005.6451840174823,2005.9304171461195,2006.2162873179193,2006.5027685554037,2006.7898344845235,2007.0774583538964,2007.3656130361903,2007.6542710108379,2007.9434043512117,2008.2329847276208,2008.5229834273403,2008.813371399796,2009.1041193151332,2009.3951975996558,2009.6865764371864,2009.9782257562215,2010.2701152166808,2010.5622141990887,2010.8544917986217,2011.146916825241,2011.4394578155907,2011.7320830700462,2012.0247607051826,2012.3174586879832,2012.6101448444872,2012.902786858703,2013.195352265838,2013.487808441069,2013.7801225891233,2014.072261732642,2014.364192712717,2014.6558822373047,2014.9472969649344,2015.238403551502,2015.5291686240355,2015.8195587390446,2016.1095404163373,2016.3990802393732,2016.6881449276284,2016.976701351755,2017.2647165300823,2017.552157628366,2017.8389919623821,2018.1251869883524,2018.4107102580774,2018.6955293647409,2018.9796119507944,2019.2629257754847,2019.5454387661594,2019.8271190281916,2020.1079348447715,2020.3878546896817,2020.6668472494118,2020.9448814412226,2021.221926429996,2021.4979516499639,2021.7729268240046,2022.0468219752413,2022.3196074358052,2022.5912538629088,2022.8617322622304,2023.1310140056235,2023.399070838288,2023.6658748689076,2023.9313985232816,2024.195614472404,2024.4584955771868,2024.720014863213,2024.9801455214647,2025.2388609467912,2025.496134801946,2025.7519410678385,2026.0062540670183,2026.2590484685059,2026.5102992755944,2026.7599817958076,2027.0080715905838,2027.2545444168557,2027.4993761986623,2027.7425430523265,2027.9840213359857,2028.2237876739796,2028.4618189496007,2028.6980923035403,2028.9325851688566,2029.1652753201552,2029.3961408801813,2029.6251602817947,2029.8523122502436,2030.0775758523905,2030.3009305715143,2030.5223563188288,2030.74183337848,2030.9593423683764,2031.1748642582397,2031.3883804047057,2031.5998725418124,2031.8093227288994,2032.0167133204295,2032.2220269954635,2032.4252468045927,2032.626356158871,2032.8253387631742,2033.0221785702672,2033.2168597896552,2033.4093669272818,2033.5996848345749,2033.7877987542602,2033.9736943373819,2034.1573576116527,2034.338774938461,2034.51793303115,2034.6948190297105,2034.8694205454624,2035.0417256302903,2035.2117227061326,2035.3794005054403,2035.5447480372118,2035.7077545765717,2035.8684096811435,2036.026703214335,2036.1826253361803,2036.33616646377,2036.4873172430564,2036.6360685486682,2036.7824114979405,2036.926337469424,2037.067838121002,2037.2069053930156,2037.343531480972,2037.4777087920427,2037.6094299198337,2037.7386876435148,2037.8654749338612,2037.989784961746,2038.1116111029978,2038.2309469197414,2038.3477861226881,2038.4621225638684,2038.5739503072805,2038.683263747426,2038.79005769622,2038.8943274163603,2038.9960686182,2039.0952774128198,2039.191950246858,2039.2860838872623,2039.3776754596101,2039.4667224706234,2039.5532227722765,2039.6371744987384,2039.7185760349776,2039.797426024736,2039.8737233732486,2039.9474672110252,2040.0186568519762,2040.0872918221426,2040.1533719517379,2040.2168974412386,2040.277868871505,2040.3362871924126,2040.3921537110984,2040.4454700826543,2040.49623830936,2040.5444607569707,2040.590140174267,2040.6332796830056,2040.673882740702,2040.7119531119517,2040.7474948580223,2040.7805123313326,2040.8110101703548,2040.838993296152,2040.8644669182677,2040.887436564972,2040.9079081236673,2040.9258878488547,2040.9413823356274,2040.9543984952136,2040.9649435427023,2040.9730249815436,2040.9786505742682,2040.9818283067318,2040.9825663617075,,,,,,,,,,,,,,,,,,,,,,,,,,,,,,,,,,,,,,,,,,,,,,,,,,,,,,,,,,,,,,,,,,,,,,,,,,,,,,,,,,,,,,,,,,,,,,,,,,,,,,,,,,,,,,,,,,,,,,,,,,,,,,,,,,,,,,,,,,,,,,,,,,,,,,,,,,,,,,,,,,,,,,,,,,,,,,,,,,,,,,,,,,,,,,,,,,,,,,,,,,,,,,,,,,,,,,,,,,,,,,,,,,,,,,,,,,,,,,,,,,,,,,,,,,,,,,,,,,,,,,,,,,,,,,,,,,,,,,,,,,,,,,,,,,,,,,,,,,,,,,,,,,,,,,,,,,,,,,,,,,,,,,,,,,,,,,,,,,,,,,,,,,,,,,,,,,,,,,,,,,,,,,,,,,,,,,,,,,,,,,,,,,,,,,,,,,,,,,,,,,,,,,,,,,,,,,,,,,,,,,,,,,,,,,,,,,,,,,,,,,,,,,,,,,,,,,,,,,,,,,,,,,,,,,,,,,,,,,,,,,,,,,,,,,,,,,,,,,,,,,,,,,,,,,,,,,,,,,,,,,,,,,,,,,,,,,,,,,,,,,,,,,,,,,,,,,,,,,,,,,,,,,,,,,,,,,,,,,,,,,,,,,,,,,,,,,,,,,,,,,,,,,,,,,,,,,,,,,,,,,,,,,,,,,,,,,,,,,,,,,,,,,,,,,,,,,,,,,,,,,,,,,,,,,,,,,,,,,,,,,,,,,,,,,,,,,,,,,,,,,,,,,,,,,,,,,,,,,,,,,,,,,,,,,,,,,,,,,,,,,,,,,,,,,,,,,,,,,,,,,,,,,,,,,,,,,,,,,,,,,,,,,,,,,,,,,,,,,,,,,,,,,,,,,,,,,,,,,,,,,,,,,,,,,,,,,,,,,,,,,,,,,,,,,,,,,,,,,,,,,,,,,,,,,,,,,,,,,,,,,,,,,,,,,,,,,,,,,,,,,,,,,,,,,,,,,,,,,,,,,,,,,,,,,,,,,,,,,,,,,,,,,,,,,,,,,,,,,,,,,,,,,,,,,,,,,,,,,,,,,,,,,,,,,,,,,,,,,,,,,,,,,,,,,,,,,,,,,,,,,,,,,,,,,,,,,,,,,,,,,,,,,,,,,,,,,,,,,,,,,,,,,,,,,,,,,,,,,,,,,,,,,,,,,,,,,,,,,,,,,,,,,,,,,,,,,,,,,,,,,,,,,,,,,,,,,,,,,,,,,,,,,,,,,,,,,,,,,,,,,,,,,,,,,,,,,,,,,,,,,,,,,,,,,,,,,,,,,,,,,,,,,,,,,,,,,,,,,,,,,,,,,,,,,,,,,,,,,,,,,,,,,,,,,,,,,,,,,,,,,,,,,,,,,,,,,,,,,,,,,,,,,,,,,,,,,,,,,,,,,,,,,,,,,,,,,,,,,,,,,,,,,,,,,,,,,,,,,,,,,,,,,,,,,,,,,
2046.573061289924,2046.5713673281525,2046.566514065782,2046.5585052025083,2046.5473448356104,2046.5330374384992,2046.5155878315795,2046.495001152725,2046.4712828330487,2046.4444385666081,2046.4144742785088,2046.3813961266999,2046.3452105370611,2046.3059242299882,2046.2635442226567,2046.2180778122372,2046.1695325323522,2046.1179160937334,2046.0632363439636,2046.0055012515847,2045.9447189133489,2045.8808976146386,2045.8140459280442,2045.7441727750415,2045.6712874219618,2045.595399442714,2045.5165186738193,2045.4346551731142,2045.349819203222,2045.2620212552117,2045.1712720803862,2045.077582669757,2044.9809641864736,2044.881427915715,2044.7789852511198,2044.6736476990823,2044.5654269021372,2044.4543346757534,2044.3403830345942,2044.223584204194,2044.103950633869,2043.9814950218185,2043.8562303463295,2043.7281698763084,2043.5973271380149,2043.4637158586872,2043.327349933312,2043.1882434250854,2043.046410579281,2042.9018658375423,2042.754623845293,2042.604699448214,2042.4521076798096,2042.2968637412846,2042.1389829790025,2041.9784808627742,2041.815372950773,2041.6496748491952,2041.4814022100716,2041.3105707680475,2041.1371963690622,2040.9612949722696,2040.7828826430496,2040.60197555415,2040.418589994958,2040.2327423730817,2040.044449192819,2039.8537270190388,2039.660592450815,2039.4650621117112,2039.267152659552,2039.0668808339458,2038.8642635188307,2038.6593177535126,2038.4520606897565,2038.2425095578208,2038.030681666585,2037.816594405316,2037.6002652060945,2037.3817114766389,2037.16095056195,2036.9379997631747,2036.712876390566,2036.4855978249743,2036.2561815728634,2036.0246452896938,2035.7910067534185,2035.5552838193282,2035.3174944134544,2035.0776565665556,2034.835788423776,2034.591908175202,2034.346033940587,2034.0981836930382,2033.8483752411369,2033.59662623704,2033.3429542040662,2033.0873765740341,2032.8299107018909,2032.5705738543884,2032.3093832105378,2032.04635590711,2031.781509098347,2031.5148599544248,2031.246425599475,2030.976223067876,2030.704269312892,2030.4305812270911,2030.1551756213898,2029.8780691684062,2029.5992783730094,2029.318819607385,2029.0367091639662,2028.7529632426479,2028.467597875938,2028.1806288804912,2027.8920718768125,2027.6019423329083,2027.3102555710288,2027.017026736282,2026.7222707822993,2026.4260025116805,2026.1282366391715,2025.8289878114372,2025.5282705789728,2025.22609936924,2024.9224884768535,2024.6174520594566,2024.311004139692,2024.0031586132684,2023.6939292614975,2023.3833297772294,2023.0713737863343,2022.7580748140158,2022.4434462048823,2022.1275010665574,2021.8102522571169,2021.4917123916025,2021.171893861932,2020.8508088657456,2020.5284694234915,2020.2048873736142,2019.8800743730233,2019.5540419495037,2019.2268015934844,2018.8983648043802,2018.568743038348,2018.2379476219749,2017.9059897495488,2017.572880565131,2017.2386312117744,2016.903252778508,2016.5667562169017,2016.2291523578485,2015.890452024915,2015.5506661140234,2015.2098055830734,2014.867881409519,2014.524904584467,2014.1808861453253,2013.8358372007488,2013.4897689263817,2013.1426925358567,2012.794619222997,2012.4455600902277,2012.095526102557,2011.7445280732072,2011.39257667319,2011.0396824871382,2010.6858561020083,2010.3311081552165,2009.9754493012317,2009.6188901542405,2009.261441303437,2008.9031133976982,2008.5439171945602,2008.1838635118306,2007.8229631398524,2007.4612268162514,2007.0986652700694,2006.7352892541335,2006.3711095214442,2006.006136775603,2005.6403816439656,2005.2738546808214,2004.9065663778833,2004.5385271747803,2004.169747482133,2003.8002377342523,2003.4300084588797,2003.059070310422,2002.6874340313757,2002.3151103792736,2001.942110086903,2001.5684438663445,2001.1941224264062,2000.8191564985789,2000.4435568743577,2000.067334441757,1999.6905002124965,1999.3130653244425,1998.9350409953695,1998.5564384629304,1998.177268996847,1997.7975439808881,1997.4172749660443,1997.036473644593,1996.6551517908983,1996.273321236296,1995.890993884955,1995.5081817196037,1995.1248967561362,1994.7411509868634,1994.3569564057213,1993.9723251097562,1993.5872693596352,1993.201801534269,1992.8159340363459,1992.4296792396574,1992.0430494920079,1991.6560571311109,1991.2687144980532,1990.881033946298,1990.4930278295944,1990.1047084724416,1989.716088154351,1989.3271791245375,1988.937993632844,1988.548543956607,1988.1588424173835,1987.7689013875358,1987.378733284647,1986.98835055539,1986.5977656520943,1986.2069910085022,1985.8160390281053,1985.424922090738,1985.0336525774292,1984.6422429216273,1984.2507056746247,1983.859053536499,1983.4672993201125,1983.0754558838707,1982.683536098563,1982.2915528572096,1981.8995190918042,1981.5074477839742,1981.1153519772618,1980.7232447942754,1980.3311394550574,1979.939049295857,1979.5469878000772,1979.154968623538,1978.7630055580742,1978.3711124505028,1977.9793031694646,1977.587591635557,1977.1959918575506,1976.8045179600867,1976.4131842093457,1976.0220050188323,1975.6309949344716,1975.2401686241644,1974.8495408831668,1974.4591266500142,1974.0689410301543,1973.6789993220139,1973.2893170162847,1972.8999097307005,1972.5107931139796,1972.1219828110259,1971.733494498724,1971.345343924165,1970.9575469221802,1970.5701194239462,1970.183077451388,1969.7964370994086,1969.4102145160862,1969.0244258706991,1968.639087328239,1968.2542150941076,1967.8698255184547,1967.485935156691,1967.1025607301965,1966.7197190363086,1966.337426881029,1965.955701051891,1965.5745583192254,1965.1940154702816,1964.8140893620123,1964.4347969543767,1964.056155316458,1963.6781816244636,1963.3008931585023,1962.9243072989518,1962.5484415289093,1962.1733134427197,1961.7989407520688,1961.425341284765,1961.0525329774337,1960.680533863337,1960.309362058969,1959.939035764445,1959.5695732943075,1959.2009931245605,1958.8333139194096,1958.4665545316273,1958.100734002504,1957.7358715788355,1957.3719867388281,1957.0090992074502,1956.6472289579826,1956.286396198147,1955.9266213197097,1955.5679248314498,1955.2103273436403,1954.8538496085157,1954.4985125485582,1954.1443372348747,1953.7913448513661,1953.4395567067634,1953.0889942920965,1952.7396793097541,1952.39163362464,1952.044879173532,1951.6994379040505,1951.355331759057,1951.012582678897,1950.6712126097189,1950.3312435162486,1949.9926973937409,1949.6555962766788,1949.3199622397535,1948.985817383013,1948.6531838133485,1948.3220836531561,1947.9925390745461,1947.6645723201561,1947.338205688655,1947.0134615068505,1946.690362125314,1946.3689299391535,1946.0491874116124,1945.7311571013104,1945.4148616902853,1945.1003239844335,1944.7875668867584,1944.4766133827775,1944.1674865612156,1943.860209648886,1943.5548060224335,1943.251299194507,1942.949712784908,1942.650070453993,1942.3523958084804,1942.0567123433477,1941.763043434839,1941.4714123480637,1941.1818422433662,1940.8943561826818,1940.608977133038,1940.3257279667994,1940.044631450131,1939.7657101973678,1939.4889866103601,1939.214482865679,1938.942220953331,1938.6722227130265,1938.4045098521758,1938.1391039667099,1937.87602657852,1937.6152991805936,1937.356943260224,1937.1009802832564,1936.8474316568172,1936.5963186968957,1936.347662609298,1936.1014844701804,1935.8578051797892,1935.616645407259,1935.3780255921936,1935.1419660030324,1934.9084867795752,1934.6776079280246,1934.4493493009973,1934.223730602269,1934.0007714154387,1933.7804912106683,1933.5629092881113,1933.3480446856247,1933.1359161217572,1932.926541988625,1932.7199403735742,1932.5161291234247,1932.3151259318226,1932.1169483762671,1931.9216138958825,1931.7291397610597,1931.5395430455128,1931.3528405962882,1931.1690490236351,1930.9881847135784,1930.810263851019,1930.6353024659434,1930.4633164840734,1930.2943217150216,1930.1283337811892,1929.965368070583,1929.8054397516885,1929.6485638008971,1929.494754971089,1929.344027709479,1929.1963961070905,1929.0518739188014,1928.9104746190744,1928.7722114515796,1928.6370974605422,1928.5051455094901,1928.3763682987665,1928.2507783878875,1928.1283882174769,1928.0092101254975,1927.893256348451,1927.7805389933467,1927.6710699893624,1927.5648610463822,1927.4619236309584,1927.3622689670008,1927.2659080790452,1927.1728518606535,1927.0831111188572,1926.9966965836868,1926.9136188941475,1926.8338885464452,1926.7575158141926,1926.6845106872604,1926.6148828446824,1926.548641647422,1926.485796144504,1926.426355093325,1926.3703269990078,1926.31772016307,1926.268542718271,1926.222802651269,1926.1805078159216,1926.1416659124877,1926.1062844379974,1926.074370645122,1926.045931510758,1926.0209737175724,1925.9995036931343,1925.9815276969007,1925.9670518735031,1925.9560822342023,1925.9486245993708,1925.944684538518,1925.9442673313908,1925.9473779761133,1925.9540212338175,1925.9642016712232,1925.977923703195,1925.9951916295959,1926.0160096124782,1926.0403815992915,1926.0683112752797,1926.0998020864479,1926.1348572795462,1926.173479875901,1926.2156725855807,1926.2614377544035,1926.310777390033,1926.3636932184831,1926.4201867000252,1926.480259000444,1926.5439109768781,1926.611143219623,1926.681956121907,1926.75634991678,1926.8343246717852,1926.915880272653,1927.001016402105,1927.0897325084886,1927.1820277711456,1927.27790107103,1927.3773509706357,1927.4803756963327,1927.5869731259565,1927.6971408059912,1927.8108759938832,1927.9281756938387,1928.0490366865156,1928.173455563153,1928.301428750752,1928.4329525218159,1928.5680230012297,1928.7066361840673,1928.8487879566248,1928.9944740938977,1929.1436902339078,1929.2964318552572,1929.4526942631753,1929.6124725860939,1929.7757618054661,1929.942556811124,1930.112852424561,1930.2866433491645,1930.4639240940523,1930.644688964831,1930.8289321233017,1931.0166476341608,1931.2078294666446,1931.4024714766763,1931.6005673877728,1931.8021107751767,1932.0070950568615,1932.215513491817,1932.427359186428,1932.642625115841,1932.8613041546396,1933.0833890937063,1933.308872632715,1933.5377473624624,1933.770005755289,1934.0056401656232,1934.2446428171127,1934.487005743484,1934.7327207147734,1934.981779239001,1935.2341726384711,1935.4898921086067,1935.7489287268613,1936.0112734340173,1936.2769169886883,1936.545849905976,1936.818062415175,1937.0935444417987,1937.372285602565,1937.654275223084,1937.9395023733737,1938.2279558956466,1938.519624423555,1938.8144964070957,1939.112560144797,1939.4138038146673,1939.7182154815912,1940.0257830596715,1940.3364942437167,1940.6503364439527,1940.9672967397833,1941.2873618659867,1941.6105182487968,1941.9367520642747,1942.2660492589325,1942.5983955269237,1942.933776296951,1943.2721767654068,1943.6135819420692,1943.9579766365466,1944.305345388307,1944.655672419002,1945.008941643196,1945.3651366993595,1945.7242409508215,1946.0862374558697,1946.4511089455395,1946.8188378269438,1947.1894061983496,1947.5627958597752,1947.9389883158578,1948.3179647730249,1948.6997061293428,1949.0841929704345,1949.4714056010816,1949.861324103991,1950.2539283636522,1950.649198011065,1951.0471123347725,1951.4476502490852,1951.8507903267941,1952.2565108241602,1952.6647896608508,1953.075604376736,1953.48893209678,1953.9047495121465,1954.323032885224,1954.7437581021043,1955.1669007522269,1955.5924361710872,1956.0203394346504,1956.4505853464464,1956.88314843682,1957.3180029641962,1957.7551229041574,1958.194481928364,1958.6360533903567,1959.0798103259503,1959.525725461728,1959.9737712251426,1960.4239197529823,1960.8761428900857,1961.3304121685676,1961.7866987837874,1962.2449736043825,1962.7052072131237,1963.167369922603,1963.6314317251838,1964.0973622161607,1964.5651305712731,1965.0347055834409,1965.506055688939,1965.97914894731,1966.4539529969209,1966.9304350161897,1967.4085616994068,1967.8882992524248,1968.3696134212003,1968.852469537365,1969.3368325394454,1969.8226669636413,1970.309936935408,1970.79860618172,1971.288638050223,1971.77999550606,1972.272641106378,1972.7665370011941,1973.2616450133708,1973.7579267481958,1974.2553436031533,1974.7538566746327,1975.2534266942496,1975.754014063746,1976.2555789223418,1976.7580811418634,1977.2614802500532,1977.765735381056,1978.270805306232,1978.7766485059406,1979.2832232230617,1979.790487484054,1980.298399111897,1980.8069157572822,1981.3159949411627,1981.8255940725492,1982.33567043628,1982.846181178353,1983.357083299774,1983.8683336674449,1984.3798890676446,1984.8917062879125,1985.4037421518626,1985.9159534554124,1986.4282968583777,1986.9407288340865,1987.4532056887717,1987.965683601657,1988.4781186918187,1988.9904670960018,1989.502684973408,1990.0147284354264,1990.5265534940304,1991.0381160722468,1991.5493720519544,1992.0602773370995,1992.57078791448,1993.0808598845097,1993.5904494603371,1994.0995129657542,1994.6080068550123,1995.1158877379178,1995.6231123684179,1996.1296375987035,1996.6354203592828,1997.14041771087,1997.6445869344163,1998.147885584632,1998.6502714927997,1999.151702762695,1999.652137788424,2000.1515352844347,2000.6498543017449,2001.147054225511,2001.6430947563767,2002.1379358577485,2002.6315376860382,2003.123860564732,2003.6148650079624,2004.1045117538276,2004.5927618098897,2005.079576510041,2005.5649175405472,2006.0487469279603,2006.5310270173077,2007.0117204429835,2007.4907901057393,2007.9681992036437,2008.4439113084918,2008.9178904057126,2009.3901008503037,2009.8605072805833,2010.3290745583254,2010.7957677494776,2011.2605521223372,2011.7233931554754,2012.1842565517609,2012.6431082467143,2013.0999144083582,2013.5546414313974,2014.007255922894,2014.457724700128,2014.9060148477035,2015.3520938188942,2015.7959295041383,2016.237490245994,2016.6767448322016,2017.1136624765893,2017.5482127918783,2017.9803657657496,2018.4100917344929,2018.8373613582917,2019.262145628172,2019.6844159021769,2020.1041439354717,2020.5213018995114,2020.9358623894595,2021.3477983890225,2021.7570832008164,2022.1636903954136,2022.5675937920505,2022.9687674559893,2023.3671857202387,2023.7628232255495,2024.1556549535312,2024.5456562573527,2024.932802896923,2025.3170710574566,2025.6984373461503,2026.0768787868474,2026.45237282446,2026.8248973306268,2027.1944305931606,2027.5609512913168,2027.9244384787887,2028.284871583763,2028.6422304211658,2028.9964952162877,2029.3476466332995,2029.695665781472,2030.0405341739477,2030.3822336609749,2030.720746388719,2031.0560547933937,2031.3881416006868,2031.7169898118168,2032.042582697727,2032.3649038472593,2032.6839372567301,2032.999667377338,2033.3120790737357,2033.6211575392174,2033.9268882385127,2034.2292568919856,2034.5282494825774,2034.8238522895444,2035.1160519380444,2035.4048354248055,2035.6901901129838,2035.9721037266377,2036.2505643646978,2036.525560521858,2036.7970810883896,2037.0651153284766,2037.329652850053,2037.5906835503213,2037.8481975572342,2038.1021852440294,2038.3526373127581,2038.5995448534923,2038.8428993426996,2039.0826926258178,2039.3189169335258,2039.5515649272509,2039.780629713457,2040.0061047776276,2040.2279838841882,2040.446261045834,2040.660930569556,2040.871987096202,2041.0794255986773,2041.2832413562319,2041.483429912543,2041.6799870277341,2041.8729086454307,2042.0621908744433,2042.2478299923853,2042.429822512603,2042.6081652973821,2042.7828556314166,2042.9538912271437,2043.1212701943978,2043.2849909873692,2043.4450523418493,2043.6014532425222,2043.7541929413992,2043.9032710014328,2044.0486873279824,2044.1904421800168,2044.3285361740402,2044.4629702904742,2044.593745869515,2044.7208645648223,2044.8443282663948,2044.9641390498434,2045.0802991707214,2045.1928110913343,2045.3016775497683,2045.4069016536923,2045.5084869368554,2045.6064373559707,2045.7007572535406,2045.7914513004218,2045.8785244323276,2045.9619818175931,2046.0418288760843,2046.1180713253136,2046.1907152204924,2046.259766978379,2046.325233380053,2046.3871215408496,2046.4454388543522,2046.5001929319453,2046.551391552938,2046.5990426337817,2046.6431542094788,2046.683734428,2046.7207915857011,2046.7543341948126,2046.784371023771,2046.810911082801,2046.8339635900472,2046.8535379665316,2046.8696438611587,2046.8822911749319,2046.8914900791053,2046.8972510382275,,,,,,,,,,,,,,,,,,,,,,,,,,,,,,,,,,,,,,,,,,,,,,,,,,,,,,,,,,,,,,,,,,,,,,,,,,,,,,,,,,,,,,,,,,,,,,,,,,,,,,,,,,,,,,,,,,,,,,,,,,,,,,,,,,,,,,,,,,,,,,,,,,,,,,,,,,,,,,,,,,,,,,,,,,,,,,,,,,,,,,,,,,,,,,,,,,,,,,,,,,,,,,,,,,,,,,,,,,,,,,,,,,,,,,,,,,,,,,,,,,,,,,,,,,,,,,,,,,,,,,,,,,,,,,,,,,,,,,,,,,,,,,,,,,,,,,,,,,,,,,,,,,,,,,,,,,,,,,,,,,,,,,,,,,,,,,,,,,,,,,,,,,,,,,,,,,,,,,,,,,,,,,,,,,,,,,,,,,,,,,,,,,,,,,,,,,,,,,,,,,,,,,,,,,,,,,,,,,,,,,,,,,,,,,,,,,,,,,,,,,,,,,,,,,,,,,,,,,,,,,,,,,,,,,,,,,,,,,,,,,,,,,,,,,,,,,,,,,,,,,,,,,,,,,,,,,,,,,,,,,,,,,,,,,,,,,,,,,,,,,,,,,,,,,,,,,,,,,,,,,,,,,,,,,,,,,,,,,,,,,,,,,,,,,,,,,,,,,,,,,,,,,,,,,,,,,,,,,,,,,,,,,,,,,,,,,,,,,,,,,,,,,,,,,,,,,,,,,,,,,,,,,,,,,,,,,,,,,,,,,,,,,,,,,,,,,,,,,,,,,,,,,,,,,,,,,,,,,,,,,,,,,,,,,,,,,,,,,,,,,,,,,,,,,,,,,,,,,,,,,,,,,,,,,,,,,,,,,,,,,,,,,,,,,,,,,,,,,,,,,,,,,,,,,,,,,,,,,,,,,,,,,,,,,,,,,,,,,,,,,,,,,,,,,,,,,,,,,,,,,,,,,,,,,,,,,,,,,,,,,,,,,,,,,,,,,,,,,,,,,,,,,,,,,,,,,,,,,,,,,,,,,,,,,,,,,,,,,,,,,,,,,,,,,,,,,,,,,,,,,,,,,,,,,,,,,,,,,,,,,,,,,,,,,,,,,,,,,,,,,,,,,,,,,,,,,,,,,,,,,,,,,,,,,,,,,,,,,,,,,,,,,,,,,,,,,,,,,,,,,,,,,,,,,,,,,,,,,,,,,,,,,,,,,,,,,,,,,,,,,,,,,,,,,,,,,,,,,,,,,,,,,,,,,,,,,,,,,,,,,,,,,,,,,,,,,,,,,,,,,,,,,,,,,,,,,,,,,,,,,,,,,,,,,,,,,,,,,,,,,,,,,,,,,,,,,,,,,,,,,,,,,,,,,,,,,,,,,,,,,,,,,,,,,,,,,,,
2037.3344048035206,2037.331030631703,2037.3241796471773,2037.3138608434663,2037.3000834955933,2037.2828571422976,2037.2621916262895,2037.2380971215443,2037.210584108283,2037.1796633382364,2037.1453458656597,2037.1076431363817,2037.0665670436128,2037.0221299070909,2036.974344430343,2036.9232237155795,2036.8687813325691,2036.8110313623831,2036.7499883766507,2036.6856673912769,2036.6180838506107,2036.5472536461189,2036.4731931139856,2036.3959189572695,2036.3154481230463,2036.2317977233918,2036.1449850200818,2036.0550274478533,2035.961942693678,2035.8657487959338,2035.7664641498768,2035.664107418199,2035.5586974663513,2035.4502533757861,2035.3387944917035,2035.224340457836,2035.1069112297473,2034.9865270715209,2034.8632085281195,2034.7369763811341,2034.607851615504,2034.4758554057298,2034.3410091114383,2034.2033342753991,2034.0628526162852,2033.919586005224,2033.7735564322234,2033.6247859799198,2033.473296800993,2033.319111108179,2033.1622512206925,2033.0027396557025,2032.8405991889892,2032.6758528571972,2032.5085239288653,2032.3386358584323,2032.166212234987,2031.9912767606509,2031.813853282531,2031.6339658474105,2031.4516387223737,2031.2668963764993,2031.0797634633816,2030.8902648207074,2030.6984254670065,2030.5042705688027,2030.3078253866818,2030.1091152371976,2029.9081654767017,2029.705001500604,2029.4996487771357,2029.2921329074943,2029.0824796645038,2028.870714991121,2028.6568649827284,2028.4409558771472,2028.2230140552163,2028.0030660283976,2027.7811383789297,2027.5572576748364,2027.3314504340442,2027.103743146931,2026.8741623029462,2026.6427344014205,2026.4094859595477,2026.1744435236235,2025.9376336811083,2025.6990830536329,2025.4588182401128,2025.2168657408056,2024.9732519491338,2024.7280032137062,2024.4811458768193,2024.2327062350714,2023.9827104776748,2023.7311847026733,2023.4781550074167,2023.2236475478048,2022.9676885147749,2022.7103040759089,2022.451520347883,2022.1913634070647,2021.9298593053916,2021.6670340801752,2021.4029137533637,2021.1375242991687,2020.8708915885732,2020.603041356569,2020.3339992120023,2020.0637906652769,2019.7924411447068,2019.519975997865,2019.2464204872576,2018.971799779923,2018.6961389410915,2018.419462960312,2018.141796803955,2017.8631654401338,2017.5835937991244,2017.3031066997116,2017.021728800696,2016.739484590136,2016.456398390827,2016.1724943767385,2015.8877966028467,2015.6023290459243,2015.316115646555,2015.02918033817,2014.7415470663498,2014.4532398093513,2014.1642825978254,2013.8746995292652,2013.5845147633906,2013.2937524737204,2013.002436763443,2012.710591582917,2012.418240669893,2012.125407527066,2011.8321154483144,2011.538387559146,2011.244246810485,2010.949715927837,2010.654817390884,2010.3595734982825,2010.0640064819593,2009.7681385934166,2009.4719921409473,2009.1755894822252,2008.8789529463004,2008.582104721519,2008.285066815254,2007.9878610959977,2007.6905093427592,2007.3930332847237,2007.095454634017,2006.797795073031,2006.500076199962,2006.202319494633,2005.904546334222,2005.6067780377937,2005.3090359169178,2005.0113413202023,2004.7137156514543,2004.416180345242,2004.1187568233852,2003.8214664774137,2003.5243306818572,2003.2273708079413,2002.9306082238925,2002.6340642940265,2002.3377603936576,2002.0417179365836,2001.745958387151,2001.450503235806,2001.1553739490835,2000.860591917969,2000.5661784241147,2000.2721546433725,1999.9785416785417,1999.6853605795332,1999.392632327019,1999.100377811616,1998.808617866618,1998.5173733465756,1998.226665182336,1997.9365143886153,1997.64694204925,1997.357969293115,1997.0696172671987,1996.78190710886,1996.494859896176,1996.2084966003117,1995.9228381247096,1995.6379054217646,1995.353719574604,1995.070301802183,1994.7876734173117,1994.5058557424845,1994.224870005012,1993.9447372739353,1993.6654784577938,1993.3871143206434,1993.1096654757546,1992.8331523590198,1992.5575952129022,1992.2830140959406,1992.0094289125316,1991.7368594617735,1991.4653254936102,1991.1948467434609,1990.9254429376354,1990.657133788598,1990.3899389950936,1990.1238782475405,1989.8589712232736,1989.5952375501338,1989.3326967603148,1989.0713682953196,1988.811271561219,1988.5524259579363,1988.2948508330624,1988.0385653987407,1987.7835886862777,1987.5299395502395,1987.2776366879589,1987.0266986699876,1986.7771439790595,1986.528991031193,1986.2822581740675,1986.0369636732146,1985.7931256762954,1985.5507621789893,1985.3098910622798,1985.0705301922105,1984.832697487986,1984.5964109219015,1984.3616884941105,1984.1285482244211,1983.8970081635573,1983.6670863987285,1983.4388010348478,1983.212170160321,1982.9872118193175,1982.7639439978243,1982.5423846259166,1982.3225516067978,1982.104462861241,1981.888136354983,1981.6735901025738,1981.4608421562034,1981.2499105689576,1981.040813336154,1980.8335683431565,1980.628193333058,1980.4247058978842,1980.2231235002105,1980.0234635089696,1979.8257432169885,1979.6299798361988,1979.4361905017602,1979.2443923151193,1979.0546023898964,1978.8668378125585,1978.6811155280234,1978.4974522783987,1978.3158646707245,1978.136369293794,1977.9589827436732,1977.783721551841,1977.6106021202058,1977.4396406950632,1977.2708533463099,1977.1042559377186,1976.9398640959841,1976.7776931915178,1976.6177583314004,1976.4600743717951,1976.3046559806542,1976.1515177353017,1976.0006741696939,1975.852139716991,1975.7059286212784,1975.5620549547602,1975.4205327363652,1975.281376010577,1975.1445988191424,1975.0102151346246,1974.8782388515556,1974.7486838376162,1974.6215639706008,1974.4968931254648,1974.3746851362002,1974.2549537625664,1974.1377126701911,1974.0229754118736,1973.910755386963,1973.8010657917946,1973.6939196139267,1973.5893296718016,1973.4873086515488,1973.3878691303842,1973.2910235870095,1973.1967843681778,1973.1051636199452,1973.0161732489285,1972.9298249480532,1972.8461302446015,1972.765100504016,1972.6867468886564,1972.6110803197826,1972.5381114516904,1972.4678506486734,1972.4003079806268,1972.3354932385148,1972.2734159587465,1972.214085470659,1972.157510962646,1972.1037015263605,1972.0526661680353,1972.0044138059932,1971.9589532596174,1971.9162932204536,1971.8764421924602,1971.8394084164156,1971.80519983407,1971.7738241265215,1971.745288795987,1971.7196012406575,1971.6967688039736,1971.6767987938613,1971.6596984678686,1971.6454749988093,1971.6341354424178,1971.6256867151264,1971.620135572637,1971.617488566563,1971.617751990101,1971.6209318634421,1971.627033962576,1971.636063838338,1971.6480267952734,1971.6629278615555,1971.6807718067591,1971.701563203027,1971.7253064614677,1971.752005807678,1971.7816652256006,1971.8142884119104,1971.8498787522917,1971.8884393118935,1971.9299728342878,1971.974481751768,1972.0219682191587,1972.0724341626187,1972.125881310166,1972.1823111929746,1972.2417251421853,1972.3041243096384,1972.3695097072475,1972.4378822349936,1972.5092426906444,1972.5835917587613,1972.660929951813,1972.741257518003,1972.8245743880245,1972.910880194824,1973.0001743266148,1973.0924559620198,1973.1877240784174,1973.2859774432284,1973.38721458084,1973.491433739917,1973.5986329268248,1973.7088099966434,1973.8219627181977,1973.9380887867305,1974.0571858069397,1974.1792512435381,1974.3042823502933,1974.4322761189255,1974.5632292596345,1974.697138198239,1974.83399908547,1974.9738078305872,1975.116560181633,1975.2622518320393,1975.4108784631112,1975.5624356550427,1975.7169187488205,1975.874322824143,1976.0346427986285,1976.1978735038788,1976.3640096763243,1976.5330459212744,1976.704976718328,1976.8797964665303,1977.057499500294,1977.238080022541,1977.4215319935997,1977.6078490634961,1977.7970245642719,1977.9890515282482,1978.183922734267,1978.3816307648672,1978.5821680115105,1978.785526626236,1978.9916984745128,1979.2006750965932,1979.4124476696616,1979.627006998363,1979.844343535743,1980.0644473924035,1980.2873083042568,1980.5129155787613,1980.7412580626396,1980.972324138792,1981.2061017479389,1981.4425784613675,1981.6817415755677,1981.9235781301709,1982.168074844324,1982.415218057103,1982.6649936946847,1982.9173872537324,1983.172383828985,1983.4299681777507,1983.690124760851,1983.952837734863,1984.218090931362,1984.4858678682,1984.7561517895715,1985.0289257003833,1985.3041723933068,1985.5818744733779,1985.862014356211,1986.1445742398241,1986.4295360711756,1986.7168814968607,1987.0065918000007,1987.298647864296,1987.5930301737699,1987.889718817363,1988.1886934825607,1988.489933454683,1988.7934176522706,1989.0991246892315,1989.407032908169,1989.7171203552696,1990.0293647369242,1990.3437434225818,1990.6602334926265,1990.9788117570279,1991.2994546899952,1991.622138323236,1991.9468381903193,1992.2735293355377,1992.602186329648,1992.9327832661302,1993.265293752562,1993.5996909149635,1993.9359474134912,1994.2740354690723,1994.6139269277594,1994.9555933538784,1995.299006092736,1995.6441362866592,1995.9909548703329,1996.3394325527347,1996.6895397795886,1997.0412466710557,1997.3945229496808,1997.7493379084908,1998.1056604545481,1998.4634591817037,1998.8227023845131,1999.1833580092573,1999.5453936122558,1999.9087763522514,2000.2734730046955,2000.6394500015822,2001.0066734862874,2001.375109331478,2001.7447230779007,2002.1154798500365,2002.4873443666831,2002.8602810432237,2003.2342540671088,2003.6092274027392,2003.9851647618555,2004.3620295572866,2004.7397848510136,2005.1183933237285,2005.4978172760336,2005.8780186430238,2006.2589590031835,2006.6405995787597,2007.022901242214,2007.4058245494482,2007.7893297912833,2008.1733770282985,2008.557926099703,2008.9429366285503,2009.3283680439918,2009.7141796031192,2010.1003303641214,2010.4867791168358,2010.8734843457576,2011.260404272159,2011.6474969302878,2012.0347201956902,2012.4220317579484,2012.80938910762,2013.1967495889007,2013.5840704729776,2013.9713089506474,2014.3584220454127,2014.745366568775,2015.1320991984583,2015.518576615058,2015.9047555693119,2016.2905928625528,2016.6760453271609,2017.0610698593573,2017.4456234799927,2017.8296633742423,2018.213146899658,2018.5960315686655,2018.9782749860271,2019.3598347729246,2019.7406685709684,2020.1207341245154,2020.4999893378363,2020.8783922616947,2021.255901052748,2021.6324739564855,2022.0080693173554,2022.382645606343,2022.756161489938,2023.1285759181783,2023.4998481433204,2023.86993766387,2024.2388041718623,2024.6064075257118,2024.9727077474124,2025.3376650834423,2025.7012401135507,2026.063393828316,2026.4240876604595,2026.7832835072422,2027.1409437540906,2027.497031292955,2027.8515095151204,2028.2043422468207,2028.555493666607,2028.9049283063014,2029.2526111347315,2029.5985076272714,2029.9425837952303,2030.2848061884774,2030.6251418396532,2030.96355816336,2031.3000228914727,2031.634504076623,2031.9669701338314,2032.2973899000053,2032.625732695883,2032.9519683693281,2033.276067328903,2033.5980005681204,2033.9177396389978,2034.235256580997,2034.550523862148,2034.863514338446,2035.174201225838,2035.482558124158,2035.7885590865153,2036.092178674093,2036.393391986618,2036.69217468798,2036.988503017258,2037.2823537713637,2037.5737042544329,2037.8625322110045,2038.1488158010027,2038.432533663588,2038.7136650126697,2038.9921896431797,2039.268087846075,2039.5413403452676,2039.811928306382,2040.0798333666278,2040.3450376216829,2040.6075235724284,2040.867274090771,2041.1242724341664,2041.3785022893742,2041.6299478227202,2041.8785937238868,2042.1244252253773,2042.3674280879193,2042.6075885676287,2042.8448933868442,2043.0793297155285,2043.3108851551217,2043.5395477090262,2043.7653057454,2043.9881479826895,2044.2080635011478,2044.4250417681644,2044.6390726952607,2044.8501467080869,2045.0582547547704,2045.263388250179,2045.4655390315656,2045.6646993556128,2045.8608619129434,2046.0540198414346,2046.2441667346802,2046.4312966488524,2046.6154041156658,2046.7964841699702,2046.974532398863,2047.1495449997471,2047.3215188124454,2047.4904513111658,2047.6563405790432,2047.8191852908135,2047.9789847076806,2048.1357386738246,2048.289447605627,2048.4401124646884,2048.5877347016517,2048.732316184633,2048.873859162153,2049.0123662881642,2049.1478406803667,2049.280285969616,2049.4097063278523,2049.5361064830604,2049.6594917330367,2049.7798679490315,2049.897241535999,2050.0116193591934,2050.1230086971564,2050.231417244625,2050.3368531361525,2050.4393249616323,2050.5388417696704,2050.6354130600243,2050.729048755367,2050.8197591568432,2050.9075549061376,2050.992446963381,2051.0744466004962,2051.1535654128174,2051.2298153360043,2051.3032086422822,2051.373757916821,2051.441476056854,2051.506376336539,2051.5684725030783,2051.6277788136235,2051.684310003633,2051.7380812479423,2051.7891081279413,2051.8374066007964,2051.8829929991193,2051.925884061083,2051.966096942699,2052.003649176568,2052.0385586034536,2052.070843334715,2052.1005217549214,2052.1276125374625,2052.152134671135,2052.174107497293,2052.1935507372737,2052.2104845032122,2052.2249292906113,2052.236905936848,2052.246435558196,2052.2535395091754,2052.258239374376,2052.260556974498,,,,,,,,,,,,,,,,,,,,,,,,,,,,,,,,,,,,,,,,,,,,,,,,,,,,,,,,,,,,,,,,,,,,,,,,,,,,,,,,,,,,,,,,,,,,,,,,,,,,,,,,,,,,,,,,,,,,,,,,,,,,,,,,,,,,,,,,,,,,,,,,,,,,,,,,,,,,,,,,,,,,,,,,,,,,,,,,,,,,,,,,,,,,,,,,,,,,,,,,,,,,,,,,,,,,,,,,,,,,,,,,,,,,,,,,,,,,,,,,,,,,,,,,,,,,,,,,,,,,,,,,,,,,,,,,,,,,,,,,,,,,,,,,,,,,,,,,,,,,,,,,,,,,,,,,,,,,,,,,,,,,,,,,,,,,,,,,,,,,,,,,,,,,,,,,,,,,,,,,,,,,,,,,,,,,,,,,,,,,,,,,,,,,,,,,,,,,,,,,,,,,,,,,,,,,,,,,,,,,,,,,,,,,,,,,,,,,,,,,,,,,,,,,,,,,,,,,,,,,,,,,,,,,,,,,,,,,,,,,,,,,,,,,,,,,,,,,,,,,,,,,,,,,,,,,,,,,,,,,,,,,,,,,,,,,,,,,,,,,,,,,,,,,,,,,,,,,,,,,,,,,,,,,,,,,,,,,,,,,,,,,,,,,,,,,,,,,,,,,,,,,,,,,,,,,,,,,,,,,,,,,,,,,,,,,,,,,,,,,,,,,,,,,,,,,,,,,,,,,,,,,,,,,,,,,,,,,,,,,,,,,,,,,,,,,,,,,,,,,,,,,,,,,,,,,,,,,,,,,,,,,,,,,,,,,,,,,,,,,,,,,,,,,,,,,,,,,,,,,,,,,,,,,,,,,,,,,,,,,,,,,,,,,,,,,,,,,,,,,,,,,,,,,,,,,,,,,,,,,,,,,,,,,,,,,,,,,,,,,,,,,,,,,,,,,,,,,,,,,,,,,,,,,,,,,,,,,,,,,,,,,,,,,,,,,,,,,,,,,,,,,,,,,,,,,,,,,,,,,,,,,,,,,,,,,,,,,,,,,,,,,,,,,,,,,,,,,,,,,,,,,,,,,,,,,,,,,,,,,,,,,,,,,,,,,,,,,,,,,,,,,,,,,,,,,,,,,,,,,,,,,,,,,,,,,,,,,,,,,,,,,,,,,,,,,,,,,,,,,,,,,,,,,,,,,,,,,,,,,,,,,,,,,,,,,,,,,,,,,,,,,,,,,,,,,,,,,,,,,,,,,,,,,,,,,,,,,,,,,,,,,,,,,,,,,,,,,,,,,,,,,,,,,,,,,,,,,,,,,,,,,,,,,,,,,,,,,,,,,,,,,,,,,,,,,,,,,,,,,,,,,,,,,,,,,,,,,,,,,,,,,,,,,,,,,,,,,,,,,,,,,,,,,,,,,,,,,,,,,,,,,,,,,,,,,,,,,,,,,,,,,,,,,,,,,,,,,,,,,,,,,,,,,,,,,,,,,,,,,,,,,,,,,,,,,,,,,,,,,,,,,,,,,,,,,,,,,,,,,,,,,,,,,,,,,,,,,,,,,,,,,,,,,,,,,,,,,
